2023-10-25 18:51:09, 58
2023-10-25 18:51:09, 50
2023-10-25 18:51:09, 54
2023-10-25 18:51:09, 58
2023-10-25 18:51:09, 64
2023-10-25 18:51:09, 57
2023-10-25 18:51:09, -23
2023-10-25 18:51:09, 54
2023-10-25 18:51:09, 59
2023-10-25 18:51:09, 50
2023-10-25 18:51:09, 43
2023-10-25 18:51:09, 81
2023-10-25 18:51:09, 58
2023-10-25 18:51:09, 56
2023-10-25 18:51:09, 64
2023-10-25 18:51:09, 29
2023-10-25 18:51:09, 66
2023-10-25 18:51:09, 55
2023-10-25 18:51:09, 60
2023-10-25 18:51:09, 50
2023-10-25 18:51:09, 67
2023-10-25 18:51:09, 44
2023-10-25 18:51:09, 49
2023-10-25 18:51:09, 65
2023-10-25 18:51:09, 33
2023-10-25 18:51:09, 65
2023-10-25 18:51:09, 54
2023-10-25 18:51:09, 62
2023-10-25 18:51:09, 51
2023-10-25 18:51:09, 70
2023-10-25 18:51:09, 40
2023-10-25 18:51:09, 62
2023-10-25 18:51:09, 56
2023-10-25 18:51:09, 40
2023-10-25 18:51:10, 60
2023-10-25 18:51:10, 57
2023-10-25 18:51:10, 69
2023-10-25 18:51:10, 59
2023-10-25 18:51:10, -2
2023-10-25 18:51:10, 52
2023-10-25 18:51:10, 62
2023-10-25 18:51:10, 60
2023-10-25 18:51:10, 58
2023-10-25 18:51:10, 71
2023-10-25 18:51:10, 54
2023-10-25 18:51:10, 41
2023-10-25 18:51:10, 56
2023-10-25 18:51:10, 54
2023-10-25 18:51:10, 67
2023-10-25 18:51:10, 65
2023-10-25 18:51:10, 52
2023-10-25 18:51:10, 44
2023-10-25 18:51:10, 64
2023-10-25 18:51:10, 38
2023-10-25 18:51:10, 68
2023-10-25 18:51:10, 53
2023-10-25 18:51:10, 50
2023-10-25 18:51:10, 63
2023-10-25 18:51:10, 39
2023-10-25 18:51:10, 69
2023-10-25 18:51:10, 69
2023-10-25 18:51:10, 70
2023-10-25 18:51:10, 46
2023-10-25 18:51:10, 62
2023-10-25 18:51:10, 52
2023-10-25 18:51:10, 60
2023-10-25 18:51:10, 59
2023-10-25 18:51:10, 43
2023-10-25 18:51:11, 68
2023-10-25 18:51:11, 44
2023-10-25 18:51:11, 124
2023-10-25 18:51:11, 40
2023-10-25 18:51:11, 77
2023-10-25 18:51:11, 59
2023-10-25 18:51:11, 52
2023-10-25 18:51:11, 70
2023-10-25 18:51:11, 44
2023-10-25 18:51:11, 68
2023-10-25 18:51:11, 59
2023-10-25 18:51:11, 60
2023-10-25 18:51:11, 71
2023-10-25 18:51:11, 99
2023-10-25 18:51:11, 49
2023-10-25 18:51:11, 58
2023-10-25 18:51:11, 50
2023-10-25 18:51:11, 47
2023-10-25 18:51:11, 73
2023-10-25 18:51:11, 43
2023-10-25 18:51:11, 65
2023-10-25 18:51:11, 65
2023-10-25 18:51:11, 48
2023-10-25 18:51:11, 54
2023-10-25 18:51:11, 49
2023-10-25 18:51:11, 63
2023-10-25 18:51:11, 61
2023-10-25 18:51:11, 69
2023-10-25 18:51:11, 43
2023-10-25 18:51:11, 59
2023-10-25 18:51:11, 53
2023-10-25 18:51:11, 50
2023-10-25 18:51:11, 71
2023-10-25 18:51:11, 45
2023-10-25 18:51:12, 63
2023-10-25 18:51:12, 30
2023-10-25 18:51:12, 66
2023-10-25 18:51:12, 49
2023-10-25 18:51:12, 65
2023-10-25 18:51:12, 52
2023-10-25 18:51:12, 61
2023-10-25 18:51:12, 63
2023-10-25 18:51:12, 44
2023-10-25 18:51:12, 55
2023-10-25 18:51:12, 63
2023-10-25 18:51:12, 45
2023-10-25 18:51:12, 53
2023-10-25 18:51:12, 68
2023-10-25 18:51:12, 49
2023-10-25 18:51:12, 61
2023-10-25 18:51:12, 65
2023-10-25 18:51:12, 48
2023-10-25 18:51:12, 71
2023-10-25 18:51:12, 64
2023-10-25 18:51:12, 52
2023-10-25 18:51:12, 45
2023-10-25 18:51:12, 53
2023-10-25 18:51:12, 58
2023-10-25 18:51:12, 53
2023-10-25 18:51:12, 67
2023-10-25 18:51:12, 41
2023-10-25 18:51:12, 63
2023-10-25 18:51:12, 48
2023-10-25 18:51:12, 61
2023-10-25 18:51:12, 70
2023-10-25 18:51:12, 49
2023-10-25 18:51:12, 73
2023-10-25 18:51:12, 39
2023-10-25 18:51:12, 61
2023-10-25 18:51:12, 49
2023-10-25 18:51:12, 73
2023-10-25 18:51:12, 44
2023-10-25 18:51:12, 59
2023-10-25 18:51:12, 62
2023-10-25 18:51:12, 54
2023-10-25 18:51:12, 65
2023-10-25 18:51:12, 35
2023-10-25 18:51:12, 62
2023-10-25 18:51:12, 50
2023-10-25 18:51:12, 67
2023-10-25 18:51:12, 34
2023-10-25 18:51:12, 56
2023-10-25 18:51:12, 59
2023-10-25 18:51:12, 45
2023-10-25 18:51:12, 62
2023-10-25 18:51:12, 47
2023-10-25 18:51:12, 57
2023-10-25 18:51:12, 61
2023-10-25 18:51:12, 54
2023-10-25 18:51:12, 66
2023-10-25 18:51:12, 83
2023-10-25 18:51:12, 64
2023-10-25 18:51:12, 58
2023-10-25 18:51:12, 58
2023-10-25 18:51:12, 51
2023-10-25 18:51:12, 64
2023-10-25 18:51:12, 56
2023-10-25 18:51:12, 58
2023-10-25 18:51:12, 68
2023-10-25 18:51:12, 55
2023-10-25 18:51:12, 109
2023-10-25 18:51:12, 50
2023-10-25 18:51:13, 67
2023-10-25 18:51:13, 47
2023-10-25 18:51:13, 64
2023-10-25 18:51:13, 63
2023-10-25 18:51:13, 57
2023-10-25 18:51:13, 70
2023-10-25 18:51:13, 47
2023-10-25 18:51:13, 71
2023-10-25 18:51:13, 53
2023-10-25 18:51:13, 56
2023-10-25 18:51:13, 47
2023-10-25 18:51:13, 75
2023-10-25 18:51:13, 55
2023-10-25 18:51:13, 60
2023-10-25 18:51:13, 70
2023-10-25 18:51:13, 43
2023-10-25 18:51:13, 72
2023-10-25 18:51:13, 58
2023-10-25 18:51:13, 61
2023-10-25 18:51:13, 67
2023-10-25 18:51:13, 17
2023-10-25 18:51:13, 57
2023-10-25 18:51:13, 68
2023-10-25 18:51:13, 73
2023-10-25 18:51:13, 52
2023-10-25 18:51:13, 72
2023-10-25 18:51:13, 45
2023-10-25 18:51:13, 104
2023-10-25 18:51:13, 107
2023-10-25 18:51:13, 83
2023-10-25 18:51:13, 98
2023-10-25 18:51:13, 107
2023-10-25 18:51:13, 107
2023-10-25 18:51:13, 115
2023-10-25 18:51:14, -113
2023-10-25 18:51:14, 121
2023-10-25 18:51:14, -109
2023-10-25 18:51:14, -63
2023-10-25 18:51:14, -26
2023-10-25 18:51:14, 25
2023-10-25 18:51:14, 41
2023-10-25 18:51:14, 68
2023-10-25 18:51:14, 45
2023-10-25 18:51:14, 64
2023-10-25 18:51:14, 23
2023-10-25 18:51:14, 16
2023-10-25 18:51:14, -39
2023-10-25 18:51:14, -97
2023-10-25 18:51:14, -107
2023-10-25 18:51:14, 86
2023-10-25 18:51:14, 103
2023-10-25 18:51:14, 47
2023-10-25 18:51:14, 47
2023-10-25 18:51:14, 23
2023-10-25 18:51:14, 34
2023-10-25 18:51:14, 20
2023-10-25 18:51:14, 31
2023-10-25 18:51:14, 48
2023-10-25 18:51:14, 29
2023-10-25 18:51:14, 67
2023-10-25 18:51:14, 27
2023-10-25 18:51:14, 44
2023-10-25 18:51:14, 50
2023-10-25 18:51:14, 35
2023-10-25 18:51:14, 39
2023-10-25 18:51:14, 31
2023-10-25 18:51:14, 50
2023-10-25 18:51:14, 28
2023-10-25 18:51:15, 63
2023-10-25 18:51:15, 35
2023-10-25 18:51:15, 47
2023-10-25 18:51:15, 56
2023-10-25 18:51:15, 31
2023-10-25 18:51:15, 58
2023-10-25 18:51:15, 31
2023-10-25 18:51:15, 48
2023-10-25 18:51:15, 36
2023-10-25 18:51:15, 38
2023-10-25 18:51:15, 36
2023-10-25 18:51:15, 52
2023-10-25 18:51:15, 46
2023-10-25 18:51:15, 29
2023-10-25 18:51:15, 40
2023-10-25 18:51:15, 34
2023-10-25 18:51:15, 49
2023-10-25 18:51:15, 102
2023-10-25 18:51:15, 55
2023-10-25 18:51:15, 6
2023-10-25 18:51:15, 43
2023-10-25 18:51:15, 35
2023-10-25 18:51:15, 33
2023-10-25 18:51:15, 49
2023-10-25 18:51:15, 28
2023-10-25 18:51:15, 52
2023-10-25 18:51:15, 48
2023-10-25 18:51:15, 24
2023-10-25 18:51:15, 118
2023-10-25 18:51:15, 49
2023-10-25 18:51:15, 45
2023-10-25 18:51:15, 30
2023-10-25 18:51:15, 53
2023-10-25 18:51:15, 48
2023-10-25 18:51:15, 91
2023-10-25 18:51:15, 118
2023-10-25 18:51:15, -106
2023-10-25 18:51:15, 9
2023-10-25 18:51:15, 95
2023-10-25 18:51:15, -75
2023-10-25 18:51:15, 5
2023-10-25 18:51:15, 109
2023-10-25 18:51:15, 81
2023-10-25 18:51:15, -66
2023-10-25 18:51:15, 39
2023-10-25 18:51:15, -94
2023-10-25 18:51:15, 37
2023-10-25 18:51:15, -20
2023-10-25 18:51:15, -13
2023-10-25 18:51:15, 78
2023-10-25 18:51:15, -10
2023-10-25 18:51:15, 32
2023-10-25 18:51:15, 57
2023-10-25 18:51:15, 35
2023-10-25 18:51:15, 29
2023-10-25 18:51:15, 34
2023-10-25 18:51:15, 13
2023-10-25 18:51:15, 25
2023-10-25 18:51:15, 5
2023-10-25 18:51:15, 46
2023-10-25 18:51:15, 116
2023-10-25 18:51:15, 26
2023-10-25 18:51:15, -16
2023-10-25 18:51:15, 24
2023-10-25 18:51:15, -5
2023-10-25 18:51:15, 46
2023-10-25 18:51:15, -17
2023-10-25 18:51:15, -119
2023-10-25 18:51:16, 108
2023-10-25 18:51:16, 91
2023-10-25 18:51:16, -74
2023-10-25 18:51:16, -112
2023-10-25 18:51:16, 93
2023-10-25 18:51:16, -55
2023-10-25 18:51:16, -21
2023-10-25 18:51:16, 12
2023-10-25 18:51:16, -56
2023-10-25 18:51:16, 9
2023-10-25 18:51:16, 13
2023-10-25 18:51:16, 40
2023-10-25 18:51:16, -66
2023-10-25 18:51:16, -83
2023-10-25 18:51:16, -86
2023-10-25 18:51:16, -44
2023-10-25 18:51:16, -101
2023-10-25 18:51:16, 74
2023-10-25 18:51:16, -85
2023-10-25 18:51:16, 70
2023-10-25 18:51:16, 100
2023-10-25 18:51:16, -37
2023-10-25 18:51:16, 105
2023-10-25 18:51:16, 122
2023-10-25 18:51:16, -77
2023-10-25 18:51:16, -112
2023-10-25 18:51:16, -78
2023-10-25 18:51:16, 14
2023-10-25 18:51:16, 62
2023-10-25 18:51:16, -43
2023-10-25 18:51:16, -124
2023-10-25 18:51:16, 55
2023-10-25 18:51:16, -92
2023-10-25 18:51:16, 51
2023-10-25 18:51:17, -42
2023-10-25 18:51:17, 36
2023-10-25 18:51:17, -47
2023-10-25 18:51:17, -57
2023-10-25 18:51:17, 97
2023-10-25 18:51:17, 48
2023-10-25 18:51:17, -16
2023-10-25 18:51:17, -17
2023-10-25 18:51:17, 54
2023-10-25 18:51:17, 34
2023-10-25 18:51:17, 60
2023-10-25 18:51:17, 83
2023-10-25 18:51:17, 117
2023-10-25 18:51:17, 13
2023-10-25 18:51:17, -56
2023-10-25 18:51:17, -29
2023-10-25 18:51:17, 2
2023-10-25 18:51:17, 15
2023-10-25 18:51:17, 82
2023-10-25 18:51:17, -33
2023-10-25 18:51:17, -57
2023-10-25 18:51:17, -6
2023-10-25 18:51:17, 18
2023-10-25 18:51:17, 30
2023-10-25 18:51:17, -5
2023-10-25 18:51:17, -18
2023-10-25 18:51:17, 121
2023-10-25 18:51:17, 112
2023-10-25 18:51:17, 54
2023-10-25 18:51:17, -4
2023-10-25 18:51:17, -5
2023-10-25 18:51:17, -14
2023-10-25 18:51:17, 12
2023-10-25 18:51:17, 17
2023-10-25 18:51:17, 24
2023-10-25 18:51:17, -46
2023-10-25 18:51:17, 65
2023-10-25 18:51:17, 90
2023-10-25 18:51:17, 93
2023-10-25 18:51:17, 87
2023-10-25 18:51:17, 83
2023-10-25 18:51:17, 74
2023-10-25 18:51:17, 60
2023-10-25 18:51:17, 61
2023-10-25 18:51:17, 55
2023-10-25 18:51:17, 57
2023-10-25 18:51:17, 18
2023-10-25 18:51:17, 102
2023-10-25 18:51:17, 62
2023-10-25 18:51:17, 13
2023-10-25 18:51:17, 9
2023-10-25 18:51:17, 16
2023-10-25 18:51:17, 4
2023-10-25 18:51:17, -17
2023-10-25 18:51:17, -3
2023-10-25 18:51:17, 15
2023-10-25 18:51:17, -7
2023-10-25 18:51:17, 18
2023-10-25 18:51:17, 7
2023-10-25 18:51:17, -2
2023-10-25 18:51:17, -40
2023-10-25 18:51:17, 96
2023-10-25 18:51:17, -38
2023-10-25 18:51:17, 125
2023-10-25 18:51:17, 87
2023-10-25 18:51:17, 86
2023-10-25 18:51:17, 126
2023-10-25 18:51:17, -128
2023-10-25 18:51:18, -119
2023-10-25 18:51:18, -128
2023-10-25 18:51:18, -128
2023-10-25 18:51:18, -115
2023-10-25 18:51:18, -112
2023-10-25 18:51:18, 115
2023-10-25 18:51:18, 125
2023-10-25 18:51:18, 94
2023-10-25 18:51:18, 94
2023-10-25 18:51:18, 106
2023-10-25 18:51:18, 95
2023-10-25 18:51:18, 126
2023-10-25 18:51:18, -102
2023-10-25 18:51:18, -88
2023-10-25 18:51:18, -100
2023-10-25 18:51:18, -105
2023-10-25 18:51:18, -51
2023-10-25 18:51:18, -64
2023-10-25 18:51:18, -75
2023-10-25 18:51:18, -59
2023-10-25 18:51:18, -74
2023-10-25 18:51:18, -49
2023-10-25 18:51:18, -44
2023-10-25 18:51:18, -30
2023-10-25 18:51:18, -39
2023-10-25 18:51:18, -49
2023-10-25 18:51:18, -28
2023-10-25 18:51:18, -28
2023-10-25 18:51:18, -64
2023-10-25 18:51:18, 25
2023-10-25 18:51:18, -109
2023-10-25 18:51:18, 56
2023-10-25 18:51:18, 53
2023-10-25 18:51:18, 125
2023-10-25 18:51:19, -93
2023-10-25 18:51:19, -43
2023-10-25 18:51:19, 107
2023-10-25 18:51:19, -93
2023-10-25 18:51:19, -120
2023-10-25 18:51:19, -30
2023-10-25 18:51:19, -23
2023-10-25 18:51:19, -74
2023-10-25 18:51:19, -18
2023-10-25 18:51:19, 17
2023-10-25 18:51:19, 21
2023-10-25 18:51:19, 75
2023-10-25 18:51:19, -118
2023-10-25 18:51:19, -37
2023-10-25 18:51:19, -23
2023-10-25 18:51:19, 8
2023-10-25 18:51:19, -27
2023-10-25 18:51:19, -42
2023-10-25 18:51:19, -37
2023-10-25 18:51:19, -38
2023-10-25 18:51:19, -1
2023-10-25 18:51:19, -20
2023-10-25 18:51:19, -50
2023-10-25 18:51:19, -37
2023-10-25 18:51:19, -29
2023-10-25 18:51:19, -12
2023-10-25 18:51:19, 4
2023-10-25 18:51:19, 45
2023-10-25 18:51:19, 52
2023-10-25 18:51:19, 11
2023-10-25 18:51:19, 116
2023-10-25 18:51:19, 67
2023-10-25 18:51:19, -15
2023-10-25 18:51:19, 58
2023-10-25 18:51:20, 60
2023-10-25 18:51:20, 121
2023-10-25 18:51:20, 29
2023-10-25 18:51:20, -61
2023-10-25 18:51:20, -59
2023-10-25 18:51:20, 105
2023-10-25 18:51:20, 23
2023-10-25 18:51:20, 43
2023-10-25 18:51:20, -122
2023-10-25 18:51:20, 87
2023-10-25 18:51:20, -106
2023-10-25 18:51:20, 86
2023-10-25 18:51:20, 113
2023-10-25 18:51:20, -64
2023-10-25 18:51:20, -48
2023-10-25 18:51:20, -14
2023-10-25 18:51:20, 23
2023-10-25 18:51:20, 52
2023-10-25 18:51:20, 78
2023-10-25 18:51:20, 43
2023-10-25 18:51:20, -60
2023-10-25 18:51:20, -44
2023-10-25 18:51:20, -43
2023-10-25 18:51:20, -13
2023-10-25 18:51:20, -14
2023-10-25 18:51:20, -8
2023-10-25 18:51:20, -7
2023-10-25 18:51:20, -11
2023-10-25 18:51:20, -48
2023-10-25 18:51:20, 35
2023-10-25 18:51:20, -9
2023-10-25 18:51:20, -52
2023-10-25 18:51:20, -16
2023-10-25 18:51:20, 38
2023-10-25 18:51:20, 71
2023-10-25 18:51:20, 125
2023-10-25 18:51:20, -127
2023-10-25 18:51:20, -90
2023-10-25 18:51:20, -63
2023-10-25 18:51:20, -42
2023-10-25 18:51:20, -38
2023-10-25 18:51:20, -39
2023-10-25 18:51:20, -70
2023-10-25 18:51:20, -40
2023-10-25 18:51:20, -26
2023-10-25 18:51:20, -10
2023-10-25 18:51:20, 25
2023-10-25 18:51:20, 17
2023-10-25 18:51:20, 14
2023-10-25 18:51:20, -16
2023-10-25 18:51:20, -7
2023-10-25 18:51:20, -12
2023-10-25 18:51:20, -26
2023-10-25 18:51:20, -58
2023-10-25 18:51:20, -38
2023-10-25 18:51:20, -52
2023-10-25 18:51:20, -50
2023-10-25 18:51:20, -33
2023-10-25 18:51:20, 7
2023-10-25 18:51:20, 22
2023-10-25 18:51:20, 11
2023-10-25 18:51:20, -81
2023-10-25 18:51:20, 13
2023-10-25 18:51:20, 76
2023-10-25 18:51:20, 77
2023-10-25 18:51:20, 108
2023-10-25 18:51:20, 125
2023-10-25 18:51:20, -103
2023-10-25 18:51:21, -82
2023-10-25 18:51:21, -91
2023-10-25 18:51:21, -53
2023-10-25 18:51:21, -35
2023-10-25 18:51:21, 4
2023-10-25 18:51:21, 26
2023-10-25 18:51:21, 36
2023-10-25 18:51:21, 44
2023-10-25 18:51:21, 46
2023-10-25 18:51:21, 74
2023-10-25 18:51:21, 104
2023-10-25 18:51:21, 120
2023-10-25 18:51:21, 121
2023-10-25 18:51:21, -107
2023-10-25 18:51:21, -123
2023-10-25 18:51:21, -88
2023-10-25 18:51:21, -78
2023-10-25 18:51:21, -80
2023-10-25 18:51:21, -73
2023-10-25 18:51:21, -79
2023-10-25 18:51:21, -60
2023-10-25 18:51:21, -64
2023-10-25 18:51:21, -51
2023-10-25 18:51:21, -30
2023-10-25 18:51:21, -28
2023-10-25 18:51:21, -6
2023-10-25 18:51:21, -40
2023-10-25 18:51:21, 76
2023-10-25 18:51:21, 48
2023-10-25 18:51:21, 10
2023-10-25 18:51:21, 42
2023-10-25 18:51:21, 53
2023-10-25 18:51:21, 90
2023-10-25 18:51:21, 107
2023-10-25 18:51:22, 100
2023-10-25 18:51:22, -128
2023-10-25 18:51:22, -104
2023-10-25 18:51:22, -73
2023-10-25 18:51:22, -115
2023-10-25 18:51:22, -91
2023-10-25 18:51:22, -112
2023-10-25 18:51:22, -103
2023-10-25 18:51:22, -84
2023-10-25 18:51:22, -70
2023-10-25 18:51:22, -22
2023-10-25 18:51:22, -23
2023-10-25 18:51:22, -27
2023-10-25 18:51:22, -24
2023-10-25 18:51:22, -5
2023-10-25 18:51:22, -71
2023-10-25 18:51:22, 9
2023-10-25 18:51:22, 2
2023-10-25 18:51:22, 5
2023-10-25 18:51:22, -2
2023-10-25 18:51:22, 7
2023-10-25 18:51:22, 19
2023-10-25 18:51:22, 53
2023-10-25 18:51:22, 57
2023-10-25 18:51:22, 92
2023-10-25 18:51:22, 90
2023-10-25 18:51:22, 23
2023-10-25 18:51:22, 44
2023-10-25 18:51:22, -85
2023-10-25 18:51:22, -96
2023-10-25 18:51:22, -85
2023-10-25 18:51:22, -63
2023-10-25 18:51:22, -32
2023-10-25 18:51:22, -1
2023-10-25 18:51:23, 11
2023-10-25 18:51:23, 35
2023-10-25 18:51:23, 32
2023-10-25 18:51:23, 59
2023-10-25 18:51:23, 72
2023-10-25 18:51:23, 42
2023-10-25 18:51:23, 43
2023-10-25 18:51:23, 63
2023-10-25 18:51:23, 89
2023-10-25 18:51:23, 116
2023-10-25 18:51:23, -119
2023-10-25 18:51:23, -82
2023-10-25 18:51:23, -59
2023-10-25 18:51:23, -64
2023-10-25 18:51:23, -83
2023-10-25 18:51:23, -56
2023-10-25 18:51:23, -34
2023-10-25 18:51:23, -54
2023-10-25 18:51:23, -39
2023-10-25 18:51:23, -32
2023-10-25 18:51:23, -20
2023-10-25 18:51:23, -15
2023-10-25 18:51:23, 18
2023-10-25 18:51:23, 17
2023-10-25 18:51:23, 39
2023-10-25 18:51:23, -14
2023-10-25 18:51:23, 89
2023-10-25 18:51:23, -43
2023-10-25 18:51:23, 113
2023-10-25 18:51:23, 101
2023-10-25 18:51:23, 122
2023-10-25 18:51:23, -77
2023-10-25 18:51:23, -32
2023-10-25 18:51:23, -8
2023-10-25 18:51:23, -3
2023-10-25 18:51:23, 36
2023-10-25 18:51:23, 55
2023-10-25 18:51:23, 58
2023-10-25 18:51:23, 42
2023-10-25 18:51:23, 58
2023-10-25 18:51:23, 57
2023-10-25 18:51:23, 60
2023-10-25 18:51:23, 82
2023-10-25 18:51:23, 104
2023-10-25 18:51:23, 112
2023-10-25 18:51:23, -123
2023-10-25 18:51:23, -111
2023-10-25 18:51:23, -106
2023-10-25 18:51:23, -82
2023-10-25 18:51:23, -86
2023-10-25 18:51:23, -64
2023-10-25 18:51:23, -51
2023-10-25 18:51:23, -39
2023-10-25 18:51:23, -29
2023-10-25 18:51:23, -10
2023-10-25 18:51:23, 2
2023-10-25 18:51:23, 17
2023-10-25 18:51:23, 2
2023-10-25 18:51:23, 89
2023-10-25 18:51:23, -63
2023-10-25 18:51:23, 97
2023-10-25 18:51:23, 59
2023-10-25 18:51:23, 82
2023-10-25 18:51:23, 107
2023-10-25 18:51:23, -119
2023-10-25 18:51:23, -101
2023-10-25 18:51:23, -89
2023-10-25 18:51:23, -55
2023-10-25 18:51:24, -27
2023-10-25 18:51:24, -32
2023-10-25 18:51:24, -39
2023-10-25 18:51:24, -52
2023-10-25 18:51:24, -53
2023-10-25 18:51:24, -33
2023-10-25 18:51:24, -37
2023-10-25 18:51:24, -28
2023-10-25 18:51:24, 13
2023-10-25 18:51:24, 26
2023-10-25 18:51:24, 43
2023-10-25 18:51:24, 56
2023-10-25 18:51:24, 69
2023-10-25 18:51:24, 66
2023-10-25 18:51:24, 85
2023-10-25 18:51:24, 81
2023-10-25 18:51:24, 85
2023-10-25 18:51:24, 75
2023-10-25 18:51:24, 121
2023-10-25 18:51:24, -86
2023-10-25 18:51:24, -71
2023-10-25 18:51:24, -68
2023-10-25 18:51:24, -94
2023-10-25 18:51:24, -107
2023-10-25 18:51:24, 32
2023-10-25 18:51:24, -58
2023-10-25 18:51:24, -35
2023-10-25 18:51:24, -12
2023-10-25 18:51:24, 9
2023-10-25 18:51:24, 19
2023-10-25 18:51:24, 47
2023-10-25 18:51:24, 56
2023-10-25 18:51:24, 86
2023-10-25 18:51:24, 40
2023-10-25 18:51:25, 122
2023-10-25 18:51:25, 116
2023-10-25 18:51:25, 115
2023-10-25 18:51:25, -120
2023-10-25 18:51:25, -120
2023-10-25 18:51:25, -92
2023-10-25 18:51:25, -73
2023-10-25 18:51:25, -78
2023-10-25 18:51:25, -47
2023-10-25 18:51:25, -51
2023-10-25 18:51:25, -12
2023-10-25 18:51:25, -24
2023-10-25 18:51:25, -13
2023-10-25 18:51:25, -9
2023-10-25 18:51:25, -7
2023-10-25 18:51:25, 5
2023-10-25 18:51:25, -13
2023-10-25 18:51:25, 4
2023-10-25 18:51:25, 18
2023-10-25 18:51:25, 40
2023-10-25 18:51:25, 38
2023-10-25 18:51:25, -62
2023-10-25 18:51:25, 45
2023-10-25 18:51:25, -91
2023-10-25 18:51:25, 96
2023-10-25 18:51:25, 100
2023-10-25 18:51:25, 122
2023-10-25 18:51:25, -96
2023-10-25 18:51:25, -80
2023-10-25 18:51:25, -83
2023-10-25 18:51:25, -78
2023-10-25 18:51:25, -38
2023-10-25 18:51:25, 16
2023-10-25 18:51:25, 12
2023-10-25 18:51:26, 10
2023-10-25 18:51:26, 9
2023-10-25 18:51:26, -2
2023-10-25 18:51:26, 16
2023-10-25 18:51:26, 42
2023-10-25 18:51:26, 71
2023-10-25 18:51:26, 70
2023-10-25 18:51:26, 77
2023-10-25 18:51:26, 83
2023-10-25 18:51:26, 94
2023-10-25 18:51:26, 97
2023-10-25 18:51:26, 107
2023-10-25 18:51:26, 118
2023-10-25 18:51:26, -116
2023-10-25 18:51:26, -102
2023-10-25 18:51:26, -101
2023-10-25 18:51:26, -95
2023-10-25 18:51:26, -75
2023-10-25 18:51:26, -49
2023-10-25 18:51:26, -31
2023-10-25 18:51:26, -4
2023-10-25 18:51:26, -71
2023-10-25 18:51:26, -7
2023-10-25 18:51:26, 127
2023-10-25 18:51:26, 61
2023-10-25 18:51:26, 55
2023-10-25 18:51:26, 85
2023-10-25 18:51:26, 96
2023-10-25 18:51:26, 112
2023-10-25 18:51:26, -109
2023-10-25 18:51:26, -85
2023-10-25 18:51:26, -60
2023-10-25 18:51:26, -30
2023-10-25 18:51:26, -39
2023-10-25 18:51:26, -40
2023-10-25 18:51:26, -51
2023-10-25 18:51:26, -58
2023-10-25 18:51:26, -41
2023-10-25 18:51:26, -24
2023-10-25 18:51:26, 2
2023-10-25 18:51:26, 24
2023-10-25 18:51:26, 40
2023-10-25 18:51:26, 61
2023-10-25 18:51:26, 75
2023-10-25 18:51:26, 51
2023-10-25 18:51:26, 83
2023-10-25 18:51:26, 79
2023-10-25 18:51:26, 86
2023-10-25 18:51:26, 112
2023-10-25 18:51:26, -128
2023-10-25 18:51:26, -123
2023-10-25 18:51:26, -122
2023-10-25 18:51:26, -103
2023-10-25 18:51:26, -70
2023-10-25 18:51:26, -74
2023-10-25 18:51:26, 84
2023-10-25 18:51:26, -58
2023-10-25 18:51:26, 64
2023-10-25 18:51:26, 7
2023-10-25 18:51:26, 7
2023-10-25 18:51:26, 42
2023-10-25 18:51:26, 108
2023-10-25 18:51:26, 119
2023-10-25 18:51:26, 123
2023-10-25 18:51:26, -110
2023-10-25 18:51:26, -107
2023-10-25 18:51:26, -70
2023-10-25 18:51:26, -74
2023-10-25 18:51:27, -69
2023-10-25 18:51:27, -54
2023-10-25 18:51:27, -48
2023-10-25 18:51:27, -51
2023-10-25 18:51:27, -10
2023-10-25 18:51:27, 7
2023-10-25 18:51:27, 57
2023-10-25 18:51:27, 45
2023-10-25 18:51:27, 46
2023-10-25 18:51:27, 57
2023-10-25 18:51:27, 65
2023-10-25 18:51:27, 60
2023-10-25 18:51:27, 54
2023-10-25 18:51:27, 81
2023-10-25 18:51:27, 123
2023-10-25 18:51:27, -123
2023-10-25 18:51:27, -120
2023-10-25 18:51:27, 94
2023-10-25 18:51:27, -65
2023-10-25 18:51:27, -68
2023-10-25 18:51:27, 99
2023-10-25 18:51:27, -65
2023-10-25 18:51:27, 61
2023-10-25 18:51:27, 2
2023-10-25 18:51:27, 15
2023-10-25 18:51:27, 38
2023-10-25 18:51:27, 55
2023-10-25 18:51:27, 65
2023-10-25 18:51:27, 3
2023-10-25 18:51:27, 95
2023-10-25 18:51:27, 111
2023-10-25 18:51:27, -121
2023-10-25 18:51:27, -104
2023-10-25 18:51:27, -95
2023-10-25 18:51:28, -126
2023-10-25 18:51:28, -102
2023-10-25 18:51:28, -99
2023-10-25 18:51:28, -61
2023-10-25 18:51:28, -45
2023-10-25 18:51:28, -12
2023-10-25 18:51:28, 15
2023-10-25 18:51:28, 29
2023-10-25 18:51:28, 47
2023-10-25 18:51:28, 39
2023-10-25 18:51:28, 73
2023-10-25 18:51:28, 85
2023-10-25 18:51:28, 81
2023-10-25 18:51:28, 114
2023-10-25 18:51:28, 100
2023-10-25 18:51:28, 127
2023-10-25 18:51:28, -92
2023-10-25 18:51:28, -109
2023-10-25 18:51:28, -105
2023-10-25 18:51:28, -103
2023-10-25 18:51:28, 61
2023-10-25 18:51:28, -94
2023-10-25 18:51:28, 27
2023-10-25 18:51:28, -29
2023-10-25 18:51:28, -27
2023-10-25 18:51:28, 0
2023-10-25 18:51:28, -4
2023-10-25 18:51:28, 51
2023-10-25 18:51:28, 71
2023-10-25 18:51:28, 100
2023-10-25 18:51:28, 119
2023-10-25 18:51:28, -126
2023-10-25 18:51:28, -125
2023-10-25 18:51:28, -114
2023-10-25 18:51:29, 125
2023-10-25 18:51:29, -106
2023-10-25 18:51:29, -91
2023-10-25 18:51:29, -77
2023-10-25 18:51:29, -32
2023-10-25 18:51:29, -14
2023-10-25 18:51:29, -3
2023-10-25 18:51:29, 6
2023-10-25 18:51:29, 20
2023-10-25 18:51:29, 23
2023-10-25 18:51:29, 54
2023-10-25 18:51:29, 53
2023-10-25 18:51:29, 81
2023-10-25 18:51:29, 85
2023-10-25 18:51:29, 77
2023-10-25 18:51:29, 113
2023-10-25 18:51:29, -118
2023-10-25 18:51:29, -116
2023-10-25 18:51:29, -99
2023-10-25 18:51:29, -105
2023-10-25 18:51:29, -94
2023-10-25 18:51:29, 126
2023-10-25 18:51:29, -32
2023-10-25 18:51:29, 84
2023-10-25 18:51:29, 2
2023-10-25 18:51:29, -28
2023-10-25 18:51:29, 35
2023-10-25 18:51:29, 65
2023-10-25 18:51:29, 68
2023-10-25 18:51:29, 55
2023-10-25 18:51:29, 109
2023-10-25 18:51:29, -111
2023-10-25 18:51:29, -108
2023-10-25 18:51:29, -76
2023-10-25 18:51:29, -78
2023-10-25 18:51:29, -83
2023-10-25 18:51:29, -40
2023-10-25 18:51:29, -70
2023-10-25 18:51:29, -35
2023-10-25 18:51:29, -37
2023-10-25 18:51:29, -2
2023-10-25 18:51:29, 7
2023-10-25 18:51:29, 12
2023-10-25 18:51:29, 7
2023-10-25 18:51:29, 34
2023-10-25 18:51:29, 30
2023-10-25 18:51:29, 22
2023-10-25 18:51:29, 80
2023-10-25 18:51:29, 90
2023-10-25 18:51:29, 73
2023-10-25 18:51:29, 89
2023-10-25 18:51:29, 96
2023-10-25 18:51:29, -128
2023-10-25 18:51:29, -126
2023-10-25 18:51:29, -105
2023-10-25 18:51:29, -85
2023-10-25 18:51:29, -76
2023-10-25 18:51:29, -81
2023-10-25 18:51:29, 23
2023-10-25 18:51:29, 74
2023-10-25 18:51:29, -8
2023-10-25 18:51:29, 15
2023-10-25 18:51:29, 48
2023-10-25 18:51:29, 81
2023-10-25 18:51:29, 98
2023-10-25 18:51:29, 108
2023-10-25 18:51:29, 120
2023-10-25 18:51:29, -109
2023-10-25 18:51:30, -80
2023-10-25 18:51:30, -77
2023-10-25 18:51:30, -54
2023-10-25 18:51:30, -53
2023-10-25 18:51:30, -72
2023-10-25 18:51:30, -34
2023-10-25 18:51:30, -22
2023-10-25 18:51:30, 28
2023-10-25 18:51:30, 30
2023-10-25 18:51:30, 31
2023-10-25 18:51:30, 42
2023-10-25 18:51:30, 55
2023-10-25 18:51:30, 38
2023-10-25 18:51:30, 78
2023-10-25 18:51:30, 90
2023-10-25 18:51:30, 95
2023-10-25 18:51:30, 108
2023-10-25 18:51:30, 112
2023-10-25 18:51:30, 123
2023-10-25 18:51:30, -125
2023-10-25 18:51:30, 126
2023-10-25 18:51:30, -113
2023-10-25 18:51:30, -102
2023-10-25 18:51:30, -86
2023-10-25 18:51:30, -80
2023-10-25 18:51:30, 102
2023-10-25 18:51:30, -53
2023-10-25 18:51:30, 67
2023-10-25 18:51:30, 0
2023-10-25 18:51:30, 2
2023-10-25 18:51:30, 31
2023-10-25 18:51:30, 78
2023-10-25 18:51:30, 104
2023-10-25 18:51:30, 120
2023-10-25 18:51:31, -97
2023-10-25 18:51:31, -75
2023-10-25 18:51:31, -74
2023-10-25 18:51:31, -47
2023-10-25 18:51:31, -71
2023-10-25 18:51:31, -57
2023-10-25 18:51:31, -56
2023-10-25 18:51:31, -53
2023-10-25 18:51:31, -27
2023-10-25 18:51:31, -27
2023-10-25 18:51:31, 3
2023-10-25 18:51:31, 45
2023-10-25 18:51:31, 56
2023-10-25 18:51:31, 36
2023-10-25 18:51:31, 56
2023-10-25 18:51:31, 64
2023-10-25 18:51:31, 81
2023-10-25 18:51:31, 81
2023-10-25 18:51:31, 93
2023-10-25 18:51:31, 106
2023-10-25 18:51:31, 101
2023-10-25 18:51:31, 123
2023-10-25 18:51:31, -112
2023-10-25 18:51:31, -111
2023-10-25 18:51:31, -116
2023-10-25 18:51:31, -75
2023-10-25 18:51:31, -87
2023-10-25 18:51:31, 66
2023-10-25 18:51:31, -73
2023-10-25 18:51:31, 27
2023-10-25 18:51:31, -45
2023-10-25 18:51:31, -26
2023-10-25 18:51:31, -4
2023-10-25 18:51:31, 52
2023-10-25 18:51:32, 55
2023-10-25 18:51:32, 61
2023-10-25 18:51:32, 67
2023-10-25 18:51:32, 115
2023-10-25 18:51:32, -103
2023-10-25 18:51:32, -119
2023-10-25 18:51:32, -113
2023-10-25 18:51:32, -114
2023-10-25 18:51:32, -119
2023-10-25 18:51:32, -79
2023-10-25 18:51:32, -75
2023-10-25 18:51:32, -36
2023-10-25 18:51:32, -9
2023-10-25 18:51:32, -15
2023-10-25 18:51:32, 20
2023-10-25 18:51:32, 16
2023-10-25 18:51:32, 27
2023-10-25 18:51:32, 2
2023-10-25 18:51:32, 27
2023-10-25 18:51:32, 50
2023-10-25 18:51:32, 64
2023-10-25 18:51:32, 58
2023-10-25 18:51:32, 54
2023-10-25 18:51:32, 113
2023-10-25 18:51:32, 108
2023-10-25 18:51:32, -127
2023-10-25 18:51:32, 107
2023-10-25 18:51:32, 120
2023-10-25 18:51:32, -98
2023-10-25 18:51:32, 126
2023-10-25 18:51:32, 34
2023-10-25 18:51:32, 68
2023-10-25 18:51:32, -72
2023-10-25 18:51:32, -77
2023-10-25 18:51:32, -88
2023-10-25 18:51:32, -102
2023-10-25 18:51:32, -79
2023-10-25 18:51:32, -30
2023-10-25 18:51:32, -28
2023-10-25 18:51:32, -7
2023-10-25 18:51:32, 27
2023-10-25 18:51:32, 42
2023-10-25 18:51:32, 17
2023-10-25 18:51:32, 49
2023-10-25 18:51:32, 20
2023-10-25 18:51:32, -2
2023-10-25 18:51:32, 16
2023-10-25 18:51:32, 20
2023-10-25 18:51:32, 35
2023-10-25 18:51:32, 67
2023-10-25 18:51:32, 78
2023-10-25 18:51:32, 91
2023-10-25 18:51:32, 105
2023-10-25 18:51:32, 123
2023-10-25 18:51:32, 126
2023-10-25 18:51:32, -128
2023-10-25 18:51:32, 110
2023-10-25 18:51:32, -118
2023-10-25 18:51:32, -127
2023-10-25 18:51:32, -83
2023-10-25 18:51:32, -103
2023-10-25 18:51:32, -82
2023-10-25 18:51:32, -77
2023-10-25 18:51:32, -57
2023-10-25 18:51:32, -35
2023-10-25 18:51:32, -35
2023-10-25 18:51:32, -104
2023-10-25 18:51:32, -12
2023-10-25 18:51:33, 115
2023-10-25 18:51:33, 25
2023-10-25 18:51:33, -24
2023-10-25 18:51:33, 10
2023-10-25 18:51:33, 17
2023-10-25 18:51:33, 48
2023-10-25 18:51:33, 51
2023-10-25 18:51:33, 88
2023-10-25 18:51:33, 123
2023-10-25 18:51:33, -123
2023-10-25 18:51:33, -99
2023-10-25 18:51:33, -116
2023-10-25 18:51:33, -121
2023-10-25 18:51:33, -93
2023-10-25 18:51:33, -86
2023-10-25 18:51:33, -53
2023-10-25 18:51:33, -71
2023-10-25 18:51:33, -46
2023-10-25 18:51:33, -41
2023-10-25 18:51:33, 2
2023-10-25 18:51:33, 24
2023-10-25 18:51:33, 13
2023-10-25 18:51:33, 19
2023-10-25 18:51:33, 7
2023-10-25 18:51:33, 40
2023-10-25 18:51:33, 53
2023-10-25 18:51:33, 40
2023-10-25 18:51:33, 77
2023-10-25 18:51:33, 67
2023-10-25 18:51:33, 108
2023-10-25 18:51:33, 107
2023-10-25 18:51:33, 120
2023-10-25 18:51:33, -98
2023-10-25 18:51:33, -110
2023-10-25 18:51:34, -113
2023-10-25 18:51:34, 34
2023-10-25 18:51:34, -125
2023-10-25 18:51:34, -7
2023-10-25 18:51:34, -71
2023-10-25 18:51:34, -44
2023-10-25 18:51:34, 8
2023-10-25 18:51:34, 46
2023-10-25 18:51:34, 41
2023-10-25 18:51:34, 64
2023-10-25 18:51:34, 94
2023-10-25 18:51:34, 106
2023-10-25 18:51:34, -121
2023-10-25 18:51:34, -123
2023-10-25 18:51:34, -120
2023-10-25 18:51:34, -126
2023-10-25 18:51:34, -87
2023-10-25 18:51:34, -99
2023-10-25 18:51:34, -80
2023-10-25 18:51:34, -26
2023-10-25 18:51:34, -33
2023-10-25 18:51:34, -17
2023-10-25 18:51:34, -7
2023-10-25 18:51:34, -21
2023-10-25 18:51:34, 31
2023-10-25 18:51:34, 42
2023-10-25 18:51:34, 45
2023-10-25 18:51:34, 86
2023-10-25 18:51:34, 76
2023-10-25 18:51:34, 92
2023-10-25 18:51:34, 117
2023-10-25 18:51:34, 124
2023-10-25 18:51:34, 125
2023-10-25 18:51:34, -99
2023-10-25 18:51:35, -82
2023-10-25 18:51:35, -81
2023-10-25 18:51:35, -84
2023-10-25 18:51:35, 81
2023-10-25 18:51:35, -127
2023-10-25 18:51:35, -56
2023-10-25 18:51:35, -45
2023-10-25 18:51:35, -16
2023-10-25 18:51:35, -5
2023-10-25 18:51:35, 22
2023-10-25 18:51:35, 38
2023-10-25 18:51:35, 37
2023-10-25 18:51:35, 65
2023-10-25 18:51:35, 76
2023-10-25 18:51:35, 90
2023-10-25 18:51:35, 62
2023-10-25 18:51:35, -127
2023-10-25 18:51:35, -127
2023-10-25 18:51:35, -122
2023-10-25 18:51:35, -122
2023-10-25 18:51:35, -93
2023-10-25 18:51:35, -48
2023-10-25 18:51:35, -18
2023-10-25 18:51:35, -17
2023-10-25 18:51:35, -21
2023-10-25 18:51:35, 1
2023-10-25 18:51:35, -53
2023-10-25 18:51:35, 18
2023-10-25 18:51:35, 44
2023-10-25 18:51:35, 46
2023-10-25 18:51:35, 57
2023-10-25 18:51:35, 89
2023-10-25 18:51:35, 89
2023-10-25 18:51:35, 120
2023-10-25 18:51:35, 126
2023-10-25 18:51:35, -89
2023-10-25 18:51:35, -98
2023-10-25 18:51:35, -65
2023-10-25 18:51:35, -68
2023-10-25 18:51:35, 101
2023-10-25 18:51:35, -52
2023-10-25 18:51:35, 27
2023-10-25 18:51:35, -54
2023-10-25 18:51:35, -63
2023-10-25 18:51:35, -38
2023-10-25 18:51:35, -23
2023-10-25 18:51:35, -11
2023-10-25 18:51:35, 25
2023-10-25 18:51:35, 36
2023-10-25 18:51:35, 61
2023-10-25 18:51:35, 81
2023-10-25 18:51:35, 103
2023-10-25 18:51:35, 107
2023-10-25 18:51:35, 103
2023-10-25 18:51:35, 106
2023-10-25 18:51:35, 101
2023-10-25 18:51:35, 123
2023-10-25 18:51:35, -127
2023-10-25 18:51:35, -102
2023-10-25 18:51:35, -70
2023-10-25 18:51:35, -23
2023-10-25 18:51:35, -34
2023-10-25 18:51:35, -2
2023-10-25 18:51:35, -32
2023-10-25 18:51:35, -18
2023-10-25 18:51:35, -3
2023-10-25 18:51:35, 8
2023-10-25 18:51:35, 27
2023-10-25 18:51:36, 36
2023-10-25 18:51:36, 32
2023-10-25 18:51:36, 87
2023-10-25 18:51:36, 113
2023-10-25 18:51:36, 122
2023-10-25 18:51:36, -115
2023-10-25 18:51:36, -98
2023-10-25 18:51:36, -93
2023-10-25 18:51:36, 112
2023-10-25 18:51:36, -47
2023-10-25 18:51:36, 40
2023-10-25 18:51:36, -63
2023-10-25 18:51:36, -108
2023-10-25 18:51:36, -25
2023-10-25 18:51:36, 2
2023-10-25 18:51:36, 20
2023-10-25 18:51:36, 31
2023-10-25 18:51:36, 51
2023-10-25 18:51:36, 80
2023-10-25 18:51:36, 104
2023-10-25 18:51:36, 120
2023-10-25 18:51:36, 127
2023-10-25 18:51:36, 115
2023-10-25 18:51:36, 126
2023-10-25 18:51:36, -79
2023-10-25 18:51:36, -52
2023-10-25 18:51:36, -35
2023-10-25 18:51:36, -8
2023-10-25 18:51:36, -11
2023-10-25 18:51:36, 23
2023-10-25 18:51:36, 24
2023-10-25 18:51:36, 30
2023-10-25 18:51:36, 13
2023-10-25 18:51:36, 43
2023-10-25 18:51:37, 82
2023-10-25 18:51:37, 44
2023-10-25 18:51:37, 58
2023-10-25 18:51:37, 73
2023-10-25 18:51:37, 108
2023-10-25 18:51:37, 88
2023-10-25 18:51:37, 120
2023-10-25 18:51:37, 118
2023-10-25 18:51:37, 119
2023-10-25 18:51:37, -125
2023-10-25 18:51:37, 119
2023-10-25 18:51:37, 37
2023-10-25 18:51:37, -49
2023-10-25 18:51:37, -93
2023-10-25 18:51:37, -106
2023-10-25 18:51:37, -70
2023-10-25 18:51:37, -29
2023-10-25 18:51:37, 7
2023-10-25 18:51:37, 41
2023-10-25 18:51:37, 67
2023-10-25 18:51:37, 106
2023-10-25 18:51:37, -111
2023-10-25 18:51:37, -53
2023-10-25 18:51:37, -124
2023-10-25 18:51:37, -105
2023-10-25 18:51:37, -115
2023-10-25 18:51:37, -104
2023-10-25 18:51:37, -89
2023-10-25 18:51:37, -91
2023-10-25 18:51:37, -73
2023-10-25 18:51:37, -60
2023-10-25 18:51:37, -41
2023-10-25 18:51:37, -41
2023-10-25 18:51:37, -115
2023-10-25 18:51:38, 8
2023-10-25 18:51:38, 6
2023-10-25 18:51:38, 24
2023-10-25 18:51:38, 31
2023-10-25 18:51:38, 41
2023-10-25 18:51:38, 43
2023-10-25 18:51:38, 69
2023-10-25 18:51:38, 74
2023-10-25 18:51:38, 78
2023-10-25 18:51:38, 86
2023-10-25 18:51:38, 79
2023-10-25 18:51:38, -110
2023-10-25 18:51:38, -123
2023-10-25 18:51:38, -18
2023-10-25 18:51:38, 83
2023-10-25 18:51:38, -25
2023-10-25 18:51:38, -74
2023-10-25 18:51:38, -40
2023-10-25 18:51:38, -21
2023-10-25 18:51:38, -3
2023-10-25 18:51:38, 2
2023-10-25 18:51:38, 24
2023-10-25 18:51:38, 42
2023-10-25 18:51:38, 60
2023-10-25 18:51:38, 127
2023-10-25 18:51:38, 122
2023-10-25 18:51:38, 87
2023-10-25 18:51:38, 64
2023-10-25 18:51:38, 82
2023-10-25 18:51:38, 100
2023-10-25 18:51:38, 111
2023-10-25 18:51:38, -118
2023-10-25 18:51:38, -73
2023-10-25 18:51:38, -64
2023-10-25 18:51:38, -61
2023-10-25 18:51:38, -38
2023-10-25 18:51:38, -40
2023-10-25 18:51:38, -38
2023-10-25 18:51:38, -20
2023-10-25 18:51:38, 0
2023-10-25 18:51:38, -9
2023-10-25 18:51:38, 13
2023-10-25 18:51:38, 19
2023-10-25 18:51:38, 24
2023-10-25 18:51:38, 53
2023-10-25 18:51:38, 50
2023-10-25 18:51:38, 75
2023-10-25 18:51:38, 74
2023-10-25 18:51:38, 103
2023-10-25 18:51:38, 118
2023-10-25 18:51:38, 61
2023-10-25 18:51:38, -100
2023-10-25 18:51:38, 16
2023-10-25 18:51:38, -81
2023-10-25 18:51:38, -84
2023-10-25 18:51:38, -55
2023-10-25 18:51:38, -17
2023-10-25 18:51:38, -11
2023-10-25 18:51:38, -2
2023-10-25 18:51:38, 30
2023-10-25 18:51:38, 62
2023-10-25 18:51:38, 84
2023-10-25 18:51:38, 99
2023-10-25 18:51:38, 111
2023-10-25 18:51:38, 96
2023-10-25 18:51:38, 95
2023-10-25 18:51:38, 99
2023-10-25 18:51:38, -125
2023-10-25 18:51:39, -111
2023-10-25 18:51:39, -86
2023-10-25 18:51:39, -62
2023-10-25 18:51:39, -41
2023-10-25 18:51:39, -45
2023-10-25 18:51:39, -37
2023-10-25 18:51:39, -6
2023-10-25 18:51:39, -16
2023-10-25 18:51:39, 14
2023-10-25 18:51:39, 34
2023-10-25 18:51:39, 37
2023-10-25 18:51:39, 55
2023-10-25 18:51:39, 73
2023-10-25 18:51:39, 90
2023-10-25 18:51:39, 93
2023-10-25 18:51:39, 111
2023-10-25 18:51:39, 125
2023-10-25 18:51:39, 109
2023-10-25 18:51:39, 112
2023-10-25 18:51:39, 27
2023-10-25 18:51:39, 119
2023-10-25 18:51:39, -84
2023-10-25 18:51:39, -58
2023-10-25 18:51:39, -39
2023-10-25 18:51:39, 126
2023-10-25 18:51:39, 90
2023-10-25 18:51:39, -55
2023-10-25 18:51:39, -110
2023-10-25 18:51:39, -90
2023-10-25 18:51:39, -11
2023-10-25 18:51:39, 27
2023-10-25 18:51:39, 98
2023-10-25 18:51:39, -84
2023-10-25 18:51:39, -92
2023-10-25 18:51:40, 27
2023-10-25 18:51:40, -102
2023-10-25 18:51:40, -89
2023-10-25 18:51:40, 117
2023-10-25 18:51:40, 0
2023-10-25 18:51:40, -128
2023-10-25 18:51:40, -87
2023-10-25 18:51:40, -34
2023-10-25 18:51:40, 40
2023-10-25 18:51:40, -93
2023-10-25 18:51:40, -59
2023-10-25 18:51:40, 41
2023-10-25 18:51:40, 29
2023-10-25 18:51:40, -57
2023-10-25 18:51:40, -121
2023-10-25 18:51:40, -54
2023-10-25 18:51:40, 66
2023-10-25 18:51:40, -40
2023-10-25 18:51:40, 29
2023-10-25 18:51:40, 51
2023-10-25 18:51:40, 94
2023-10-25 18:51:40, 8
2023-10-25 18:51:40, -111
2023-10-25 18:51:40, -37
2023-10-25 18:51:40, 91
2023-10-25 18:51:40, 20
2023-10-25 18:51:40, -34
2023-10-25 18:51:40, -37
2023-10-25 18:51:40, -124
2023-10-25 18:51:40, 92
2023-10-25 18:51:40, 68
2023-10-25 18:51:40, 66
2023-10-25 18:51:40, 29
2023-10-25 18:51:40, 39
2023-10-25 18:51:41, 30
2023-10-25 18:51:41, 29
2023-10-25 18:51:41, 25
2023-10-25 18:51:41, -8
2023-10-25 18:51:41, 8
2023-10-25 18:51:41, -41
2023-10-25 18:51:41, -36
2023-10-25 18:51:41, -53
2023-10-25 18:51:41, -28
2023-10-25 18:51:41, -55
2023-10-25 18:51:41, -42
2023-10-25 18:51:41, -43
2023-10-25 18:51:41, -75
2023-10-25 18:51:41, -30
2023-10-25 18:51:41, -59
2023-10-25 18:51:41, -49
2023-10-25 18:51:41, -55
2023-10-25 18:51:41, -40
2023-10-25 18:51:41, -57
2023-10-25 18:51:41, -46
2023-10-25 18:51:41, -40
2023-10-25 18:51:41, -63
2023-10-25 18:51:41, -43
2023-10-25 18:51:41, -51
2023-10-25 18:51:41, -38
2023-10-25 18:51:41, -44
2023-10-25 18:51:41, -56
2023-10-25 18:51:41, -55
2023-10-25 18:51:41, -40
2023-10-25 18:51:41, -44
2023-10-25 18:51:41, -59
2023-10-25 18:51:41, -41
2023-10-25 18:51:41, -59
2023-10-25 18:51:41, -54
2023-10-25 19:12:22, -27
2023-10-25 19:12:22, -32
2023-10-25 19:12:22, -12
2023-10-25 19:12:22, -9
2023-10-25 19:12:22, -20
2023-10-25 19:12:22, -23
2023-10-25 19:12:22, -16
2023-10-25 19:12:22, -46
2023-10-25 19:12:22, -13
2023-10-25 19:12:22, -19
2023-10-25 19:12:22, -27
2023-10-25 19:12:22, -10
2023-10-25 19:12:22, -33
2023-10-25 19:12:22, -11
2023-10-25 19:12:22, -27
2023-10-25 19:12:22, -12
2023-10-25 19:12:22, -29
2023-10-25 19:12:22, -14
2023-10-25 19:12:22, -34
2023-10-25 19:12:22, -26
2023-10-25 19:12:22, -18
2023-10-25 19:12:22, -36
2023-10-25 19:12:22, -12
2023-10-25 19:12:22, -37
2023-10-25 19:12:22, -29
2023-10-25 19:12:22, -44
2023-10-25 19:12:22, -24
2023-10-25 19:12:22, -26
2023-10-25 19:12:22, -11
2023-10-25 19:12:22, -12
2023-10-25 19:12:22, -18
2023-10-25 19:12:22, -18
2023-10-25 19:12:22, -33
2023-10-25 19:12:22, -19
2023-10-25 19:12:23, -20
2023-10-25 19:12:23, -51
2023-10-25 19:12:23, -26
2023-10-25 19:12:23, -25
2023-10-25 19:12:23, -28
2023-10-25 19:12:23, -46
2023-10-25 19:12:23, -12
2023-10-25 19:12:23, -33
2023-10-25 19:12:23, -22
2023-10-25 19:12:23, -15
2023-10-25 19:12:23, -32
2023-10-25 19:12:23, -7
2023-10-25 19:12:23, -3
2023-10-25 19:12:23, -11
2023-10-25 19:12:23, -34
2023-10-25 19:12:23, -13
2023-10-25 19:12:23, -33
2023-10-25 19:12:23, -23
2023-10-25 19:12:23, -12
2023-10-25 19:12:23, -28
2023-10-25 19:12:23, -17
2023-10-25 19:12:23, -36
2023-10-25 19:12:23, -24
2023-10-25 19:12:23, -41
2023-10-25 19:12:23, -18
2023-10-25 19:12:23, -26
2023-10-25 19:12:23, -27
2023-10-25 19:12:23, -31
2023-10-25 19:12:23, -28
2023-10-25 19:12:23, -25
2023-10-25 19:12:23, -36
2023-10-25 19:12:23, -13
2023-10-25 19:12:23, -25
2023-10-25 19:12:23, -26
2023-10-25 19:12:24, -29
2023-10-25 19:12:24, -22
2023-10-25 19:12:24, -28
2023-10-25 19:12:24, -30
2023-10-25 19:12:24, -15
2023-10-25 19:12:24, -40
2023-10-25 19:12:24, -28
2023-10-25 19:12:24, -15
2023-10-25 19:12:24, -37
2023-10-25 19:12:24, -8
2023-10-25 19:12:24, -24
2023-10-25 19:12:24, -20
2023-10-25 19:12:24, -36
2023-10-25 19:12:24, -12
2023-10-25 19:12:24, -29
2023-10-25 19:12:24, -16
2023-10-25 19:12:24, -19
2023-10-25 19:12:24, -31
2023-10-25 19:12:24, -11
2023-10-25 19:12:24, -41
2023-10-25 19:12:24, -15
2023-10-25 19:12:24, 18
2023-10-25 19:12:24, -26
2023-10-25 19:12:24, -30
2023-10-25 19:12:24, -17
2023-10-25 19:12:24, -14
2023-10-25 19:12:24, -30
2023-10-25 19:12:24, -9
2023-10-25 19:12:24, -45
2023-10-25 19:12:24, -42
2023-10-25 19:12:24, -20
2023-10-25 19:12:24, -34
2023-10-25 19:12:24, -60
2023-10-25 19:12:24, -23
2023-10-25 19:12:25, -18
2023-10-25 19:12:25, -30
2023-10-25 19:12:25, -25
2023-10-25 19:12:25, -28
2023-10-25 19:12:25, -17
2023-10-25 19:12:25, -16
2023-10-25 19:12:25, -29
2023-10-25 19:12:25, -13
2023-10-25 19:12:25, -34
2023-10-25 19:12:25, -46
2023-10-25 19:12:25, -27
2023-10-25 19:12:25, -13
2023-10-25 19:12:25, -41
2023-10-25 19:12:25, -16
2023-10-25 19:12:25, -32
2023-10-25 19:12:25, -31
2023-10-25 19:12:25, -23
2023-10-25 19:12:25, -25
2023-10-25 19:12:25, -11
2023-10-25 19:12:25, -24
2023-10-25 19:12:25, -34
2023-10-25 19:12:25, -32
2023-10-25 19:12:25, -10
2023-10-25 19:12:25, -27
2023-10-25 19:12:25, -27
2023-10-25 19:12:25, -15
2023-10-25 19:12:25, -32
2023-10-25 19:12:25, -15
2023-10-25 19:12:25, -36
2023-10-25 19:12:25, -27
2023-10-25 19:12:25, -17
2023-10-25 19:12:25, -22
2023-10-25 19:12:25, -17
2023-10-25 19:12:25, -21
2023-10-25 19:12:25, 4
2023-10-25 19:12:25, -33
2023-10-25 19:12:25, -3
2023-10-25 19:12:25, -25
2023-10-25 19:12:25, -31
2023-10-25 19:12:25, -20
2023-10-25 19:12:25, -41
2023-10-25 19:12:25, -15
2023-10-25 19:12:25, -20
2023-10-25 19:12:25, -15
2023-10-25 19:12:25, -33
2023-10-25 19:12:25, -5
2023-10-25 19:12:25, -23
2023-10-25 19:12:25, -26
2023-10-25 19:12:25, -8
2023-10-25 19:12:25, -41
2023-10-25 19:12:25, -12
2023-10-25 19:12:25, -26
2023-10-25 19:12:25, -33
2023-10-25 19:12:25, -33
2023-10-25 19:12:25, -10
2023-10-25 19:12:25, -29
2023-10-25 19:12:25, -28
2023-10-25 19:12:25, -25
2023-10-25 19:12:25, -28
2023-10-25 19:12:25, -21
2023-10-25 19:12:25, -25
2023-10-25 19:12:25, -20
2023-10-25 19:12:25, -27
2023-10-25 19:12:25, -41
2023-10-25 19:12:25, -22
2023-10-25 19:12:25, -3
2023-10-25 19:12:25, -15
2023-10-25 19:12:25, -61
2023-10-25 19:12:26, -27
2023-10-25 19:12:26, -27
2023-10-25 19:12:26, -29
2023-10-25 19:12:26, -20
2023-10-25 19:12:26, -38
2023-10-25 19:12:26, -6
2023-10-25 19:12:26, 14
2023-10-25 19:12:26, 8
2023-10-25 19:12:26, 14
2023-10-25 19:12:26, 71
2023-10-25 19:12:26, -116
2023-10-25 19:12:26, -26
2023-10-25 19:12:26, 39
2023-10-25 19:12:26, -100
2023-10-25 19:12:26, -24
2023-10-25 19:12:26, 49
2023-10-25 19:12:26, -21
2023-10-25 19:12:26, 19
2023-10-25 19:12:26, -47
2023-10-25 19:12:26, -83
2023-10-25 19:12:26, -103
2023-10-25 19:12:26, -100
2023-10-25 19:12:26, -121
2023-10-25 19:12:26, -116
2023-10-25 19:12:26, 106
2023-10-25 19:12:26, 114
2023-10-25 19:12:26, -118
2023-10-25 19:12:26, 115
2023-10-25 19:12:26, 96
2023-10-25 19:12:26, -89
2023-10-25 19:12:26, -92
2023-10-25 19:12:26, -108
2023-10-25 19:12:26, -74
2023-10-25 19:12:26, 85
2023-10-25 19:12:27, -60
2023-10-25 19:12:27, 36
2023-10-25 19:12:27, -42
2023-10-25 19:12:27, 81
2023-10-25 19:12:27, -72
2023-10-25 19:12:27, 10
2023-10-25 19:12:27, 120
2023-10-25 19:12:27, -21
2023-10-25 19:12:27, -29
2023-10-25 19:12:27, 51
2023-10-25 19:12:27, -119
2023-10-25 19:12:27, -35
2023-10-25 19:12:27, -47
2023-10-25 19:12:27, -87
2023-10-25 19:12:27, 94
2023-10-25 19:12:27, 55
2023-10-25 19:12:27, 58
2023-10-25 19:12:27, 56
2023-10-25 19:12:27, -123
2023-10-25 19:12:27, -110
2023-10-25 19:12:27, 123
2023-10-25 19:12:27, 82
2023-10-25 19:12:27, 110
2023-10-25 19:12:27, 127
2023-10-25 19:12:27, 35
2023-10-25 19:12:27, 14
2023-10-25 19:12:27, -56
2023-10-25 19:12:27, -102
2023-10-25 19:12:27, 91
2023-10-25 19:12:27, 22
2023-10-25 19:12:27, -83
2023-10-25 19:12:27, -75
2023-10-25 19:12:27, 125
2023-10-25 19:12:27, -76
2023-10-25 19:12:27, 40
2023-10-25 19:12:27, -54
2023-10-25 19:12:27, -75
2023-10-25 19:12:27, -29
2023-10-25 19:12:27, 73
2023-10-25 19:12:27, 90
2023-10-25 19:12:27, -96
2023-10-25 19:12:27, 14
2023-10-25 19:12:27, -98
2023-10-25 19:12:27, -3
2023-10-25 19:12:27, 22
2023-10-25 19:12:27, 77
2023-10-25 19:12:27, -55
2023-10-25 19:12:27, -79
2023-10-25 19:12:27, -93
2023-10-25 19:12:27, 88
2023-10-25 19:12:27, -97
2023-10-25 19:12:27, -12
2023-10-25 19:12:27, 27
2023-10-25 19:12:27, -44
2023-10-25 19:12:27, -119
2023-10-25 19:12:27, -122
2023-10-25 19:12:27, -85
2023-10-25 19:12:27, 62
2023-10-25 19:12:27, -118
2023-10-25 19:12:27, -28
2023-10-25 19:12:27, 9
2023-10-25 19:12:27, -104
2023-10-25 19:12:27, -41
2023-10-25 19:12:27, 111
2023-10-25 19:12:27, 112
2023-10-25 19:12:27, -110
2023-10-25 19:12:27, 101
2023-10-25 19:12:27, 1
2023-10-25 19:12:28, 76
2023-10-25 19:12:28, 91
2023-10-25 19:12:28, -23
2023-10-25 19:12:28, 68
2023-10-25 19:12:28, -21
2023-10-25 19:12:28, 80
2023-10-25 19:12:28, -98
2023-10-25 19:12:28, 24
2023-10-25 19:12:28, -87
2023-10-25 19:12:28, 32
2023-10-25 19:12:28, -19
2023-10-25 19:12:28, 75
2023-10-25 19:12:28, 51
2023-10-25 19:12:28, -63
2023-10-25 19:12:28, -29
2023-10-25 19:12:28, 23
2023-10-25 19:12:28, 78
2023-10-25 19:12:28, -103
2023-10-25 19:12:28, 82
2023-10-25 19:12:28, -56
2023-10-25 19:12:28, 33
2023-10-25 19:12:28, 75
2023-10-25 19:12:28, -108
2023-10-25 19:12:28, -25
2023-10-25 19:12:28, 30
2023-10-25 19:12:28, 43
2023-10-25 19:12:28, 95
2023-10-25 19:12:28, -115
2023-10-25 19:12:28, -86
2023-10-25 19:12:28, -104
2023-10-25 19:12:28, 91
2023-10-25 19:12:28, 40
2023-10-25 19:12:28, 0
2023-10-25 19:12:28, -24
2023-10-25 19:12:29, -10
2023-10-25 19:12:29, 126
2023-10-25 19:12:29, -90
2023-10-25 19:12:29, -10
2023-10-25 19:12:29, 92
2023-10-25 19:12:29, 47
2023-10-25 19:12:29, 96
2023-10-25 19:12:29, 105
2023-10-25 19:12:29, 102
2023-10-25 19:12:29, 98
2023-10-25 19:12:29, 101
2023-10-25 19:12:29, -109
2023-10-25 19:12:29, 4
2023-10-25 19:12:29, 39
2023-10-25 19:12:29, 59
2023-10-25 19:12:29, 79
2023-10-25 19:12:29, 82
2023-10-25 19:12:29, 78
2023-10-25 19:12:29, 82
2023-10-25 19:12:29, 87
2023-10-25 19:12:29, 116
2023-10-25 19:12:29, -116
2023-10-25 19:12:29, -102
2023-10-25 19:12:29, -80
2023-10-25 19:12:29, -59
2023-10-25 19:12:29, -20
2023-10-25 19:12:29, -51
2023-10-25 19:12:29, -35
2023-10-25 19:12:29, -28
2023-10-25 19:12:29, -27
2023-10-25 19:12:29, -3
2023-10-25 19:12:29, -17
2023-10-25 19:12:29, -34
2023-10-25 19:12:29, -10
2023-10-25 19:12:30, -75
2023-10-25 19:12:30, -17
2023-10-25 19:12:30, -43
2023-10-25 19:12:30, -24
2023-10-25 19:12:30, -128
2023-10-25 19:12:30, 120
2023-10-25 19:12:30, -37
2023-10-25 19:12:30, 28
2023-10-25 19:12:30, 39
2023-10-25 19:12:30, 48
2023-10-25 19:12:30, -117
2023-10-25 19:12:30, -47
2023-10-25 19:12:30, 24
2023-10-25 19:12:30, 64
2023-10-25 19:12:30, 93
2023-10-25 19:12:30, 109
2023-10-25 19:12:30, 104
2023-10-25 19:12:30, 92
2023-10-25 19:12:30, 95
2023-10-25 19:12:30, -128
2023-10-25 19:12:30, -104
2023-10-25 19:12:30, -28
2023-10-25 19:12:30, -52
2023-10-25 19:12:30, -50
2023-10-25 19:12:30, -11
2023-10-25 19:12:30, 13
2023-10-25 19:12:30, 8
2023-10-25 19:12:30, 28
2023-10-25 19:12:30, 46
2023-10-25 19:12:30, 53
2023-10-25 19:12:30, 65
2023-10-25 19:12:30, 88
2023-10-25 19:12:30, 78
2023-10-25 19:12:30, 86
2023-10-25 19:12:30, -57
2023-10-25 19:12:30, -53
2023-10-25 19:12:30, -29
2023-10-25 19:12:30, -117
2023-10-25 19:12:30, -83
2023-10-25 19:12:30, -56
2023-10-25 19:12:30, 12
2023-10-25 19:12:30, 42
2023-10-25 19:12:30, 39
2023-10-25 19:12:30, -11
2023-10-25 19:12:30, 111
2023-10-25 19:12:30, -90
2023-10-25 19:12:30, -45
2023-10-25 19:12:30, -44
2023-10-25 19:12:30, -53
2023-10-25 19:12:30, -79
2023-10-25 19:12:30, -54
2023-10-25 19:12:30, -7
2023-10-25 19:12:30, 23
2023-10-25 19:12:30, 34
2023-10-25 19:12:30, 23
2023-10-25 19:12:30, 124
2023-10-25 19:12:30, -112
2023-10-25 19:12:30, -107
2023-10-25 19:12:30, -99
2023-10-25 19:12:30, -58
2023-10-25 19:12:30, -37
2023-10-25 19:12:30, -22
2023-10-25 19:12:30, -12
2023-10-25 19:12:30, -4
2023-10-25 19:12:30, 1
2023-10-25 19:12:30, 29
2023-10-25 19:12:30, 33
2023-10-25 19:12:30, 10
2023-10-25 19:12:31, -50
2023-10-25 19:12:31, -3
2023-10-25 19:12:31, -63
2023-10-25 19:12:31, 60
2023-10-25 19:12:31, 71
2023-10-25 19:12:31, -4
2023-10-25 19:12:31, -8
2023-10-25 19:12:31, -8
2023-10-25 19:12:31, 72
2023-10-25 19:12:31, 1
2023-10-25 19:12:31, -18
2023-10-25 19:12:31, -31
2023-10-25 19:12:31, -3
2023-10-25 19:12:31, 17
2023-10-25 19:12:31, 47
2023-10-25 19:12:31, 36
2023-10-25 19:12:31, 59
2023-10-25 19:12:31, 119
2023-10-25 19:12:31, -94
2023-10-25 19:12:31, 74
2023-10-25 19:12:31, -19
2023-10-25 19:12:31, -111
2023-10-25 19:12:31, -11
2023-10-25 19:12:31, 47
2023-10-25 19:12:31, 99
2023-10-25 19:12:31, 121
2023-10-25 19:12:31, -88
2023-10-25 19:12:31, -45
2023-10-25 19:12:31, -8
2023-10-25 19:12:31, 41
2023-10-25 19:12:31, 102
2023-10-25 19:12:31, -127
2023-10-25 19:12:31, -107
2023-10-25 19:12:31, -78
2023-10-25 19:12:32, -49
2023-10-25 19:12:32, -46
2023-10-25 19:12:32, -24
2023-10-25 19:12:32, -56
2023-10-25 19:12:32, 21
2023-10-25 19:12:32, 53
2023-10-25 19:12:32, -109
2023-10-25 19:12:32, 121
2023-10-25 19:12:32, -37
2023-10-25 19:12:32, 8
2023-10-25 19:12:32, 42
2023-10-25 19:12:32, 37
2023-10-25 19:12:32, 37
2023-10-25 19:12:32, 66
2023-10-25 19:12:32, 97
2023-10-25 19:12:32, 120
2023-10-25 19:12:32, -105
2023-10-25 19:12:32, -101
2023-10-25 19:12:32, -93
2023-10-25 19:12:32, -100
2023-10-25 19:12:32, -91
2023-10-25 19:12:32, -71
2023-10-25 19:12:32, -42
2023-10-25 19:12:32, -41
2023-10-25 19:12:32, -9
2023-10-25 19:12:32, 12
2023-10-25 19:12:32, 17
2023-10-25 19:12:32, 47
2023-10-25 19:12:32, 99
2023-10-25 19:12:32, -31
2023-10-25 19:12:32, -25
2023-10-25 19:12:32, 20
2023-10-25 19:12:32, 24
2023-10-25 19:12:32, 50
2023-10-25 19:12:33, 80
2023-10-25 19:12:33, 74
2023-10-25 19:12:33, -128
2023-10-25 19:12:33, -116
2023-10-25 19:12:33, -100
2023-10-25 19:12:33, -51
2023-10-25 19:12:33, 125
2023-10-25 19:12:33, -75
2023-10-25 19:12:33, 14
2023-10-25 19:12:33, -21
2023-10-25 19:12:33, 70
2023-10-25 19:12:33, -117
2023-10-25 19:12:33, -74
2023-10-25 19:12:33, -55
2023-10-25 19:12:33, -27
2023-10-25 19:12:33, 2
2023-10-25 19:12:33, -42
2023-10-25 19:12:33, 82
2023-10-25 19:12:33, 95
2023-10-25 19:12:33, 113
2023-10-25 19:12:33, 95
2023-10-25 19:12:33, 116
2023-10-25 19:12:33, -111
2023-10-25 19:12:33, -78
2023-10-25 19:12:33, -76
2023-10-25 19:12:33, -52
2023-10-25 19:12:33, -32
2023-10-25 19:12:33, -81
2023-10-25 19:12:33, 34
2023-10-25 19:12:33, 51
2023-10-25 19:12:33, 74
2023-10-25 19:12:33, 69
2023-10-25 19:12:33, 90
2023-10-25 19:12:33, 100
2023-10-25 19:12:33, 120
2023-10-25 19:12:33, -116
2023-10-25 19:12:33, -116
2023-10-25 19:12:33, -84
2023-10-25 19:12:33, -48
2023-10-25 19:12:33, -20
2023-10-25 19:12:33, -40
2023-10-25 19:12:33, 91
2023-10-25 19:12:33, 127
2023-10-25 19:12:33, -84
2023-10-25 19:12:33, 68
2023-10-25 19:12:33, -124
2023-10-25 19:12:33, -48
2023-10-25 19:12:33, 6
2023-10-25 19:12:33, 60
2023-10-25 19:12:33, 101
2023-10-25 19:12:33, -117
2023-10-25 19:12:33, -115
2023-10-25 19:12:33, -99
2023-10-25 19:12:33, -84
2023-10-25 19:12:33, -91
2023-10-25 19:12:33, -92
2023-10-25 19:12:33, -67
2023-10-25 19:12:33, -83
2023-10-25 19:12:33, -81
2023-10-25 19:12:33, -66
2023-10-25 19:12:33, -10
2023-10-25 19:12:33, 5
2023-10-25 19:12:33, 29
2023-10-25 19:12:33, 33
2023-10-25 19:12:33, 78
2023-10-25 19:12:33, 91
2023-10-25 19:12:33, 108
2023-10-25 19:12:33, 115
2023-10-25 19:12:34, -125
2023-10-25 19:12:34, 113
2023-10-25 19:12:34, 126
2023-10-25 19:12:34, -93
2023-10-25 19:12:34, -86
2023-10-25 19:12:34, -64
2023-10-25 19:12:34, -42
2023-10-25 19:12:34, -19
2023-10-25 19:12:34, -59
2023-10-25 19:12:34, 50
2023-10-25 19:12:34, 76
2023-10-25 19:12:34, -124
2023-10-25 19:12:34, 19
2023-10-25 19:12:34, 40
2023-10-25 19:12:34, -28
2023-10-25 19:12:34, 27
2023-10-25 19:12:34, 79
2023-10-25 19:12:34, 102
2023-10-25 19:12:34, -120
2023-10-25 19:12:34, 113
2023-10-25 19:12:34, -109
2023-10-25 19:12:34, -85
2023-10-25 19:12:34, -64
2023-10-25 19:12:34, -67
2023-10-25 19:12:34, -73
2023-10-25 19:12:34, -43
2023-10-25 19:12:34, 1
2023-10-25 19:12:34, 33
2023-10-25 19:12:34, 46
2023-10-25 19:12:34, 58
2023-10-25 19:12:34, 96
2023-10-25 19:12:34, 108
2023-10-25 19:12:34, 116
2023-10-25 19:12:34, 113
2023-10-25 19:12:35, -119
2023-10-25 19:12:35, 98
2023-10-25 19:12:35, -109
2023-10-25 19:12:35, -117
2023-10-25 19:12:35, -67
2023-10-25 19:12:35, -81
2023-10-25 19:12:35, -43
2023-10-25 19:12:35, -68
2023-10-25 19:12:35, -42
2023-10-25 19:12:35, -36
2023-10-25 19:12:35, -14
2023-10-25 19:12:35, -88
2023-10-25 19:12:35, -98
2023-10-25 19:12:35, 115
2023-10-25 19:12:35, 88
2023-10-25 19:12:35, -104
2023-10-25 19:12:35, -16
2023-10-25 19:12:35, 35
2023-10-25 19:12:35, 71
2023-10-25 19:12:35, 86
2023-10-25 19:12:35, 101
2023-10-25 19:12:35, -122
2023-10-25 19:12:35, -87
2023-10-25 19:12:35, -82
2023-10-25 19:12:35, -90
2023-10-25 19:12:35, -118
2023-10-25 19:12:35, -105
2023-10-25 19:12:35, -85
2023-10-25 19:12:35, -66
2023-10-25 19:12:35, -42
2023-10-25 19:12:35, -29
2023-10-25 19:12:35, -9
2023-10-25 19:12:35, 3
2023-10-25 19:12:35, 7
2023-10-25 19:12:36, 51
2023-10-25 19:12:36, 71
2023-10-25 19:12:36, 85
2023-10-25 19:12:36, 100
2023-10-25 19:12:36, 108
2023-10-25 19:12:36, 123
2023-10-25 19:12:36, -101
2023-10-25 19:12:36, -93
2023-10-25 19:12:36, -84
2023-10-25 19:12:36, -64
2023-10-25 19:12:36, -33
2023-10-25 19:12:36, -12
2023-10-25 19:12:36, -22
2023-10-25 19:12:36, 101
2023-10-25 19:12:36, -91
2023-10-25 19:12:36, -82
2023-10-25 19:12:36, 58
2023-10-25 19:12:36, 91
2023-10-25 19:12:36, -65
2023-10-25 19:12:36, 5
2023-10-25 19:12:36, 58
2023-10-25 19:12:36, 94
2023-10-25 19:12:36, -103
2023-10-25 19:12:36, -77
2023-10-25 19:12:36, -56
2023-10-25 19:12:36, -33
2023-10-25 19:12:36, -18
2023-10-25 19:12:36, -21
2023-10-25 19:12:36, -14
2023-10-25 19:12:36, -3
2023-10-25 19:12:36, 16
2023-10-25 19:12:36, 48
2023-10-25 19:12:36, 90
2023-10-25 19:12:36, -122
2023-10-25 19:12:36, -113
2023-10-25 19:12:36, -99
2023-10-25 19:12:36, -87
2023-10-25 19:12:36, -89
2023-10-25 19:12:36, -67
2023-10-25 19:12:36, -54
2023-10-25 19:12:36, -62
2023-10-25 19:12:36, -17
2023-10-25 19:12:36, -5
2023-10-25 19:12:36, 34
2023-10-25 19:12:36, 35
2023-10-25 19:12:36, 41
2023-10-25 19:12:36, 71
2023-10-25 19:12:36, 69
2023-10-25 19:12:36, 96
2023-10-25 19:12:36, 27
2023-10-25 19:12:36, 60
2023-10-25 19:12:36, -109
2023-10-25 19:12:36, 7
2023-10-25 19:12:36, -14
2023-10-25 19:12:36, 52
2023-10-25 19:12:36, -98
2023-10-25 19:12:36, -76
2023-10-25 19:12:36, -93
2023-10-25 19:12:36, -61
2023-10-25 19:12:36, -24
2023-10-25 19:12:36, -2
2023-10-25 19:12:36, 23
2023-10-25 19:12:36, 28
2023-10-25 19:12:36, -9
2023-10-25 19:12:36, -7
2023-10-25 19:12:36, 47
2023-10-25 19:12:36, 63
2023-10-25 19:12:36, 87
2023-10-25 19:12:37, 104
2023-10-25 19:12:37, -111
2023-10-25 19:12:37, -93
2023-10-25 19:12:37, -86
2023-10-25 19:12:37, -59
2023-10-25 19:12:37, -40
2023-10-25 19:12:37, -26
2023-10-25 19:12:37, -16
2023-10-25 19:12:37, -74
2023-10-25 19:12:37, 5
2023-10-25 19:12:37, 18
2023-10-25 19:12:37, 37
2023-10-25 19:12:37, 39
2023-10-25 19:12:37, 69
2023-10-25 19:12:37, 81
2023-10-25 19:12:37, 89
2023-10-25 19:12:37, 62
2023-10-25 19:12:37, 122
2023-10-25 19:12:37, -94
2023-10-25 19:12:37, -88
2023-10-25 19:12:37, -1
2023-10-25 19:12:37, 72
2023-10-25 19:12:37, -121
2023-10-25 19:12:37, -85
2023-10-25 19:12:37, -106
2023-10-25 19:12:37, -88
2023-10-25 19:12:37, -63
2023-10-25 19:12:37, -34
2023-10-25 19:12:37, -2
2023-10-25 19:12:37, -16
2023-10-25 19:12:37, -2
2023-10-25 19:12:37, 11
2023-10-25 19:12:37, 26
2023-10-25 19:12:37, 37
2023-10-25 19:12:38, 58
2023-10-25 19:12:38, 93
2023-10-25 19:12:38, 110
2023-10-25 19:12:38, -112
2023-10-25 19:12:38, -107
2023-10-25 19:12:38, -86
2023-10-25 19:12:38, -78
2023-10-25 19:12:38, -61
2023-10-25 19:12:38, -48
2023-10-25 19:12:38, -19
2023-10-25 19:12:38, -21
2023-10-25 19:12:38, -56
2023-10-25 19:12:38, -19
2023-10-25 19:12:38, -21
2023-10-25 19:12:38, 11
2023-10-25 19:12:38, -5
2023-10-25 19:12:38, 5
2023-10-25 19:12:38, 34
2023-10-25 19:12:38, 69
2023-10-25 19:12:38, 87
2023-10-25 19:12:38, -88
2023-10-25 19:12:38, 71
2023-10-25 19:12:38, 91
2023-10-25 19:12:38, -79
2023-10-25 19:12:38, -10
2023-10-25 19:12:38, 16
2023-10-25 19:12:38, 12
2023-10-25 19:12:38, 13
2023-10-25 19:12:38, 33
2023-10-25 19:12:38, 116
2023-10-25 19:12:38, -91
2023-10-25 19:12:38, -97
2023-10-25 19:12:38, -88
2023-10-25 19:12:38, -88
2023-10-25 19:12:39, -105
2023-10-25 19:12:39, -61
2023-10-25 19:12:39, -58
2023-10-25 19:12:39, -29
2023-10-25 19:12:39, -8
2023-10-25 19:12:39, 9
2023-10-25 19:12:39, 11
2023-10-25 19:12:39, 17
2023-10-25 19:12:39, 41
2023-10-25 19:12:39, 36
2023-10-25 19:12:39, 54
2023-10-25 19:12:39, 69
2023-10-25 19:12:39, 73
2023-10-25 19:12:39, 87
2023-10-25 19:12:39, 99
2023-10-25 19:12:39, 107
2023-10-25 19:12:39, -103
2023-10-25 19:12:39, -127
2023-10-25 19:12:39, -101
2023-10-25 19:12:39, -90
2023-10-25 19:12:39, -125
2023-10-25 19:12:39, 21
2023-10-25 19:12:39, 63
2023-10-25 19:12:39, 73
2023-10-25 19:12:39, -27
2023-10-25 19:12:39, 10
2023-10-25 19:12:39, 91
2023-10-25 19:12:39, -54
2023-10-25 19:12:39, -59
2023-10-25 19:12:39, -73
2023-10-25 19:12:39, -55
2023-10-25 19:12:39, 46
2023-10-25 19:12:39, 88
2023-10-25 19:12:39, 79
2023-10-25 19:12:39, 88
2023-10-25 19:12:39, 68
2023-10-25 19:12:39, 76
2023-10-25 19:12:39, 102
2023-10-25 19:12:39, 37
2023-10-25 19:12:39, -59
2023-10-25 19:12:39, -20
2023-10-25 19:12:39, -7
2023-10-25 19:12:39, 7
2023-10-25 19:12:39, 4
2023-10-25 19:12:39, 1
2023-10-25 19:12:39, 6
2023-10-25 19:12:39, 17
2023-10-25 19:12:39, 29
2023-10-25 19:12:39, 44
2023-10-25 19:12:39, -20
2023-10-25 19:12:39, 51
2023-10-25 19:12:39, 62
2023-10-25 19:12:39, 84
2023-10-25 19:12:39, 104
2023-10-25 19:12:39, 113
2023-10-25 19:12:39, -128
2023-10-25 19:12:39, -112
2023-10-25 19:12:39, -100
2023-10-25 19:12:39, -102
2023-10-25 19:12:39, 12
2023-10-25 19:12:39, 62
2023-10-25 19:12:39, 12
2023-10-25 19:12:39, 37
2023-10-25 19:12:39, 124
2023-10-25 19:12:39, -64
2023-10-25 19:12:39, -28
2023-10-25 19:12:39, 6
2023-10-25 19:12:39, 8
2023-10-25 19:12:40, 37
2023-10-25 19:12:40, 86
2023-10-25 19:12:40, 102
2023-10-25 19:12:40, -127
2023-10-25 19:12:40, 110
2023-10-25 19:12:40, -119
2023-10-25 19:12:40, 119
2023-10-25 19:12:40, -105
2023-10-25 19:12:40, -71
2023-10-25 19:12:40, -57
2023-10-25 19:12:40, -46
2023-10-25 19:12:40, -36
2023-10-25 19:12:40, -26
2023-10-25 19:12:40, -9
2023-10-25 19:12:40, 13
2023-10-25 19:12:40, 34
2023-10-25 19:12:40, 42
2023-10-25 19:12:40, 35
2023-10-25 19:12:40, 68
2023-10-25 19:12:40, 49
2023-10-25 19:12:40, 62
2023-10-25 19:12:40, 85
2023-10-25 19:12:40, 99
2023-10-25 19:12:40, 98
2023-10-25 19:12:40, 121
2023-10-25 19:12:40, -95
2023-10-25 19:12:40, -85
2023-10-25 19:12:40, 111
2023-10-25 19:12:40, -46
2023-10-25 19:12:40, -23
2023-10-25 19:12:40, 79
2023-10-25 19:12:40, 67
2023-10-25 19:12:40, -116
2023-10-25 19:12:40, -20
2023-10-25 19:12:41, 46
2023-10-25 19:12:41, 94
2023-10-25 19:12:41, 72
2023-10-25 19:12:41, 112
2023-10-25 19:12:41, -117
2023-10-25 19:12:41, -87
2023-10-25 19:12:41, -97
2023-10-25 19:12:41, -108
2023-10-25 19:12:41, -112
2023-10-25 19:12:41, -100
2023-10-25 19:12:41, -73
2023-10-25 19:12:41, -52
2023-10-25 19:12:41, 22
2023-10-25 19:12:41, 4
2023-10-25 19:12:41, 34
2023-10-25 19:12:41, 50
2023-10-25 19:12:41, 48
2023-10-25 19:12:41, 53
2023-10-25 19:12:41, 80
2023-10-25 19:12:41, 92
2023-10-25 19:12:41, 117
2023-10-25 19:12:41, 102
2023-10-25 19:12:41, -113
2023-10-25 19:12:41, 118
2023-10-25 19:12:41, -52
2023-10-25 19:12:41, -4
2023-10-25 19:12:41, 22
2023-10-25 19:12:41, 43
2023-10-25 19:12:41, 54
2023-10-25 19:12:41, 84
2023-10-25 19:12:41, 58
2023-10-25 19:12:41, 124
2023-10-25 19:12:41, -89
2023-10-25 19:12:41, 29
2023-10-25 19:12:42, -50
2023-10-25 19:12:42, 126
2023-10-25 19:12:42, -98
2023-10-25 19:12:42, -81
2023-10-25 19:12:42, -111
2023-10-25 19:12:42, -88
2023-10-25 19:12:42, -26
2023-10-25 19:12:42, 6
2023-10-25 19:12:42, 32
2023-10-25 19:12:42, 49
2023-10-25 19:12:42, 53
2023-10-25 19:12:42, 42
2023-10-25 19:12:42, 57
2023-10-25 19:12:42, 56
2023-10-25 19:12:42, 90
2023-10-25 19:12:42, 121
2023-10-25 19:12:42, -119
2023-10-25 19:12:42, -103
2023-10-25 19:12:42, -87
2023-10-25 19:12:42, -96
2023-10-25 19:12:42, -103
2023-10-25 19:12:42, -67
2023-10-25 19:12:42, -58
2023-10-25 19:12:42, -24
2023-10-25 19:12:42, -6
2023-10-25 19:12:42, -18
2023-10-25 19:12:42, 11
2023-10-25 19:12:42, 12
2023-10-25 19:12:42, 51
2023-10-25 19:12:42, 43
2023-10-25 19:12:42, 51
2023-10-25 19:12:42, 65
2023-10-25 19:12:42, 81
2023-10-25 19:12:42, 100
2023-10-25 19:12:42, 61
2023-10-25 19:12:42, -98
2023-10-25 19:12:42, -62
2023-10-25 19:12:42, 19
2023-10-25 19:12:42, -14
2023-10-25 19:12:42, 57
2023-10-25 19:12:42, 114
2023-10-25 19:12:42, -115
2023-10-25 19:12:42, -97
2023-10-25 19:12:42, -86
2023-10-25 19:12:42, -64
2023-10-25 19:12:42, -82
2023-10-25 19:12:42, -31
2023-10-25 19:12:42, -42
2023-10-25 19:12:42, -21
2023-10-25 19:12:42, -35
2023-10-25 19:12:42, -19
2023-10-25 19:12:42, -10
2023-10-25 19:12:42, -4
2023-10-25 19:12:42, 6
2023-10-25 19:12:42, 46
2023-10-25 19:12:42, 65
2023-10-25 19:12:42, 80
2023-10-25 19:12:42, 84
2023-10-25 19:12:42, 89
2023-10-25 19:12:42, 96
2023-10-25 19:12:42, -126
2023-10-25 19:12:42, -128
2023-10-25 19:12:42, -113
2023-10-25 19:12:42, -104
2023-10-25 19:12:42, -96
2023-10-25 19:12:42, -82
2023-10-25 19:12:42, -74
2023-10-25 19:12:42, -65
2023-10-25 19:12:43, -65
2023-10-25 19:12:43, -39
2023-10-25 19:12:43, -45
2023-10-25 19:12:43, -24
2023-10-25 19:12:43, -16
2023-10-25 19:12:43, -6
2023-10-25 19:12:43, 21
2023-10-25 19:12:43, -54
2023-10-25 19:12:43, 87
2023-10-25 19:12:43, -42
2023-10-25 19:12:43, -87
2023-10-25 19:12:43, -1
2023-10-25 19:12:43, 75
2023-10-25 19:12:43, 124
2023-10-25 19:12:43, -82
2023-10-25 19:12:43, -101
2023-10-25 19:12:43, -93
2023-10-25 19:12:43, -71
2023-10-25 19:12:43, -49
2023-10-25 19:12:43, 1
2023-10-25 19:12:43, -26
2023-10-25 19:12:43, -4
2023-10-25 19:12:43, -25
2023-10-25 19:12:43, -12
2023-10-25 19:12:43, 14
2023-10-25 19:12:43, 16
2023-10-25 19:12:43, 37
2023-10-25 19:12:43, 67
2023-10-25 19:12:43, 107
2023-10-25 19:12:43, 102
2023-10-25 19:12:43, 42
2023-10-25 19:12:43, -107
2023-10-25 19:12:43, -105
2023-10-25 19:12:43, -86
2023-10-25 19:12:44, -63
2023-10-25 19:12:44, -37
2023-10-25 19:12:44, -64
2023-10-25 19:12:44, -49
2023-10-25 19:12:44, -25
2023-10-25 19:12:44, 8
2023-10-25 19:12:44, 29
2023-10-25 19:12:44, 47
2023-10-25 19:12:44, 61
2023-10-25 19:12:44, 89
2023-10-25 19:12:44, 94
2023-10-25 19:12:44, 99
2023-10-25 19:12:44, 62
2023-10-25 19:12:44, -125
2023-10-25 19:12:44, -85
2023-10-25 19:12:44, 27
2023-10-25 19:12:44, -7
2023-10-25 19:12:44, 55
2023-10-25 19:12:44, -69
2023-10-25 19:12:44, -15
2023-10-25 19:12:44, -4
2023-10-25 19:12:44, -27
2023-10-25 19:12:44, -5
2023-10-25 19:12:44, 16
2023-10-25 19:12:44, 35
2023-10-25 19:12:44, 41
2023-10-25 19:12:44, 42
2023-10-25 19:12:44, 53
2023-10-25 19:12:44, 36
2023-10-25 19:12:44, 69
2023-10-25 19:12:44, 102
2023-10-25 19:12:44, -128
2023-10-25 19:12:44, -107
2023-10-25 19:12:44, -101
2023-10-25 19:12:45, -81
2023-10-25 19:12:45, -68
2023-10-25 19:12:45, -45
2023-10-25 19:12:45, -66
2023-10-25 19:12:45, -54
2023-10-25 19:12:45, -35
2023-10-25 19:12:45, -11
2023-10-25 19:12:45, 39
2023-10-25 19:12:45, 40
2023-10-25 19:12:45, 53
2023-10-25 19:12:45, 56
2023-10-25 19:12:45, 77
2023-10-25 19:12:45, 69
2023-10-25 19:12:45, 88
2023-10-25 19:12:45, 86
2023-10-25 19:12:45, 123
2023-10-25 19:12:45, -96
2023-10-25 19:12:45, 87
2023-10-25 19:12:45, -83
2023-10-25 19:12:45, 46
2023-10-25 19:12:45, 28
2023-10-25 19:12:45, 95
2023-10-25 19:12:45, -87
2023-10-25 19:12:45, -47
2023-10-25 19:12:45, -25
2023-10-25 19:12:45, 7
2023-10-25 19:12:45, 19
2023-10-25 19:12:45, 72
2023-10-25 19:12:45, 66
2023-10-25 19:12:45, 73
2023-10-25 19:12:45, 94
2023-10-25 19:12:45, 102
2023-10-25 19:12:45, 110
2023-10-25 19:12:45, 92
2023-10-25 19:12:45, -110
2023-10-25 19:12:45, -103
2023-10-25 19:12:45, -64
2023-10-25 19:12:45, -74
2023-10-25 19:12:45, -110
2023-10-25 19:12:45, -50
2023-10-25 19:12:45, -17
2023-10-25 19:12:45, -32
2023-10-25 19:12:45, -6
2023-10-25 19:12:45, 4
2023-10-25 19:12:45, 7
2023-10-25 19:12:45, 30
2023-10-25 19:12:45, 42
2023-10-25 19:12:45, 43
2023-10-25 19:12:45, 66
2023-10-25 19:12:45, 42
2023-10-25 19:12:45, 105
2023-10-25 19:12:45, 87
2023-10-25 19:12:45, 110
2023-10-25 19:12:45, -121
2023-10-25 19:12:45, 95
2023-10-25 19:12:45, -39
2023-10-25 19:12:45, 7
2023-10-25 19:12:45, 59
2023-10-25 19:12:45, -42
2023-10-25 19:12:45, -22
2023-10-25 19:12:45, 20
2023-10-25 19:12:45, -73
2023-10-25 19:12:45, -65
2023-10-25 19:12:45, -107
2023-10-25 19:12:45, -73
2023-10-25 19:12:45, -34
2023-10-25 19:12:45, -11
2023-10-25 19:12:45, 13
2023-10-25 19:12:46, 19
2023-10-25 19:12:46, -6
2023-10-25 19:12:46, -15
2023-10-25 19:12:46, 27
2023-10-25 19:12:46, 62
2023-10-25 19:12:46, 76
2023-10-25 19:12:46, 86
2023-10-25 19:12:46, 111
2023-10-25 19:12:46, 95
2023-10-25 19:12:46, 124
2023-10-25 19:12:46, -98
2023-10-25 19:12:46, -92
2023-10-25 19:12:46, -101
2023-10-25 19:12:46, -82
2023-10-25 19:12:46, -72
2023-10-25 19:12:46, -54
2023-10-25 19:12:46, -32
2023-10-25 19:12:46, -11
2023-10-25 19:12:46, 2
2023-10-25 19:12:46, -3
2023-10-25 19:12:46, 19
2023-10-25 19:12:46, 27
2023-10-25 19:12:46, 59
2023-10-25 19:12:46, 54
2023-10-25 19:12:46, 61
2023-10-25 19:12:46, -15
2023-10-25 19:12:46, 71
2023-10-25 19:12:46, 117
2023-10-25 19:12:46, -6
2023-10-25 19:12:46, -11
2023-10-25 19:12:46, 62
2023-10-25 19:12:46, 119
2023-10-25 19:12:46, -98
2023-10-25 19:12:46, -80
2023-10-25 19:12:47, -75
2023-10-25 19:12:47, -96
2023-10-25 19:12:47, -14
2023-10-25 19:12:47, 10
2023-10-25 19:12:47, 50
2023-10-25 19:12:47, 15
2023-10-25 19:12:47, 53
2023-10-25 19:12:47, 44
2023-10-25 19:12:47, 72
2023-10-25 19:12:47, 88
2023-10-25 19:12:47, 126
2023-10-25 19:12:47, -117
2023-10-25 19:12:47, -61
2023-10-25 19:12:47, -51
2023-10-25 19:12:47, -55
2023-10-25 19:12:47, -30
2023-10-25 19:12:47, -48
2023-10-25 19:12:47, -26
2023-10-25 19:12:47, -11
2023-10-25 19:12:47, 15
2023-10-25 19:12:47, 32
2023-10-25 19:12:47, 65
2023-10-25 19:12:47, 72
2023-10-25 19:12:47, 125
2023-10-25 19:12:47, 113
2023-10-25 19:12:47, -128
2023-10-25 19:12:47, 127
2023-10-25 19:12:47, -87
2023-10-25 19:12:47, -79
2023-10-25 19:12:47, -80
2023-10-25 19:12:47, -112
2023-10-25 19:12:47, 14
2023-10-25 19:12:47, 68
2023-10-25 19:12:47, -93
2023-10-25 19:12:48, 40
2023-10-25 19:12:48, -61
2023-10-25 19:12:48, -4
2023-10-25 19:12:48, 2
2023-10-25 19:12:48, 13
2023-10-25 19:12:48, -13
2023-10-25 19:12:48, 31
2023-10-25 19:12:48, 64
2023-10-25 19:12:48, 93
2023-10-25 19:12:48, 113
2023-10-25 19:12:48, 107
2023-10-25 19:12:48, 26
2023-10-25 19:12:48, 125
2023-10-25 19:12:48, -119
2023-10-25 19:12:48, -104
2023-10-25 19:12:48, -74
2023-10-25 19:12:48, -41
2023-10-25 19:12:48, -42
2023-10-25 19:12:48, -37
2023-10-25 19:12:48, -32
2023-10-25 19:12:48, -34
2023-10-25 19:12:48, -32
2023-10-25 19:12:48, -67
2023-10-25 19:12:48, 8
2023-10-25 19:12:48, 22
2023-10-25 19:12:48, 20
2023-10-25 19:12:48, 15
2023-10-25 19:12:48, 31
2023-10-25 19:12:48, 50
2023-10-25 19:12:48, 55
2023-10-25 19:12:48, 76
2023-10-25 19:12:48, 90
2023-10-25 19:12:48, 91
2023-10-25 19:12:48, 66
2023-10-25 19:12:48, -55
2023-10-25 19:12:48, 6
2023-10-25 19:12:48, 88
2023-10-25 19:12:48, 17
2023-10-25 19:12:48, 37
2023-10-25 19:12:48, 122
2023-10-25 19:12:48, -90
2023-10-25 19:12:48, -62
2023-10-25 19:12:48, -75
2023-10-25 19:12:48, -74
2023-10-25 19:12:48, 16
2023-10-25 19:12:48, 40
2023-10-25 19:12:48, 40
2023-10-25 19:12:48, 28
2023-10-25 19:12:48, 25
2023-10-25 19:12:48, 30
2023-10-25 19:12:48, 42
2023-10-25 19:12:48, 60
2023-10-25 19:12:48, 73
2023-10-25 19:12:48, 88
2023-10-25 19:12:48, 117
2023-10-25 19:12:48, -112
2023-10-25 19:12:48, -97
2023-10-25 19:12:48, -89
2023-10-25 19:12:48, -87
2023-10-25 19:12:48, -81
2023-10-25 19:12:48, -67
2023-10-25 19:12:48, -51
2023-10-25 19:12:48, -52
2023-10-25 19:12:48, -26
2023-10-25 19:12:48, -17
2023-10-25 19:12:48, -26
2023-10-25 19:12:48, 14
2023-10-25 19:12:48, 23
2023-10-25 19:12:49, 30
2023-10-25 19:12:49, 47
2023-10-25 19:12:49, 58
2023-10-25 19:12:49, 7
2023-10-25 19:12:49, -120
2023-10-25 19:12:49, -40
2023-10-25 19:12:49, -3
2023-10-25 19:12:49, -97
2023-10-25 19:12:49, -33
2023-10-25 19:12:49, 58
2023-10-25 19:12:49, 67
2023-10-25 19:12:49, 76
2023-10-25 19:12:49, 44
2023-10-25 19:12:49, 75
2023-10-25 19:12:49, -126
2023-10-25 19:12:49, -91
2023-10-25 19:12:49, -65
2023-10-25 19:12:49, -61
2023-10-25 19:12:49, -80
2023-10-25 19:12:49, -18
2023-10-25 19:12:49, -59
2023-10-25 19:12:49, -15
2023-10-25 19:12:49, 12
2023-10-25 19:12:49, 35
2023-10-25 19:12:49, 36
2023-10-25 19:12:49, 45
2023-10-25 19:12:49, 62
2023-10-25 19:12:49, 76
2023-10-25 19:12:49, 72
2023-10-25 19:12:49, 85
2023-10-25 19:12:49, -103
2023-10-25 19:12:49, -125
2023-10-25 19:12:49, -125
2023-10-25 19:12:49, -100
2023-10-25 19:12:50, -79
2023-10-25 19:12:50, -80
2023-10-25 19:12:50, -81
2023-10-25 19:12:50, -69
2023-10-25 19:12:50, -34
2023-10-25 19:12:50, -18
2023-10-25 19:12:50, -9
2023-10-25 19:12:50, -68
2023-10-25 19:12:50, 109
2023-10-25 19:12:50, -97
2023-10-25 19:12:50, -73
2023-10-25 19:12:50, 85
2023-10-25 19:12:50, 83
2023-10-25 19:12:50, -80
2023-10-25 19:12:50, -4
2023-10-25 19:12:50, 13
2023-10-25 19:12:50, 21
2023-10-25 19:12:50, 15
2023-10-25 19:12:50, -31
2023-10-25 19:12:50, -127
2023-10-25 19:12:50, -104
2023-10-25 19:12:50, -82
2023-10-25 19:12:50, -81
2023-10-25 19:12:50, -77
2023-10-25 19:12:50, -67
2023-10-25 19:12:50, -62
2023-10-25 19:12:50, -36
2023-10-25 19:12:50, -12
2023-10-25 19:12:50, 32
2023-10-25 19:12:50, 59
2023-10-25 19:12:50, 60
2023-10-25 19:12:50, 88
2023-10-25 19:12:50, 92
2023-10-25 19:12:50, 107
2023-10-25 19:12:51, 113
2023-10-25 19:12:51, 126
2023-10-25 19:12:51, -116
2023-10-25 19:12:51, -113
2023-10-25 19:12:51, -100
2023-10-25 19:12:51, -89
2023-10-25 19:12:51, -44
2023-10-25 19:12:51, -35
2023-10-25 19:12:51, -34
2023-10-25 19:12:51, -8
2023-10-25 19:12:51, 12
2023-10-25 19:12:51, 1
2023-10-25 19:12:51, 24
2023-10-25 19:12:51, -19
2023-10-25 19:12:51, -106
2023-10-25 19:12:51, -47
2023-10-25 19:12:51, 2
2023-10-25 19:12:51, 118
2023-10-25 19:12:51, -54
2023-10-25 19:12:51, 26
2023-10-25 19:12:51, 41
2023-10-25 19:12:51, 53
2023-10-25 19:12:51, 60
2023-10-25 19:12:51, 100
2023-10-25 19:12:51, 122
2023-10-25 19:12:51, -115
2023-10-25 19:12:51, -100
2023-10-25 19:12:51, -94
2023-10-25 19:12:51, -115
2023-10-25 19:12:51, -71
2023-10-25 19:12:51, -64
2023-10-25 19:12:51, -42
2023-10-25 19:12:51, -26
2023-10-25 19:12:51, 16
2023-10-25 19:12:51, 20
2023-10-25 19:12:51, 25
2023-10-25 19:12:51, 29
2023-10-25 19:12:51, 25
2023-10-25 19:12:51, 53
2023-10-25 19:12:51, 40
2023-10-25 19:12:51, 44
2023-10-25 19:12:51, 63
2023-10-25 19:12:51, 88
2023-10-25 19:12:51, 101
2023-10-25 19:12:51, 98
2023-10-25 19:12:51, 110
2023-10-25 19:12:51, 116
2023-10-25 19:12:51, 116
2023-10-25 19:12:51, -125
2023-10-25 19:12:51, -105
2023-10-25 19:12:51, -104
2023-10-25 19:12:51, 79
2023-10-25 19:12:51, -95
2023-10-25 19:12:51, -101
2023-10-25 19:12:51, 24
2023-10-25 19:12:51, 19
2023-10-25 19:12:51, 99
2023-10-25 19:12:51, -96
2023-10-25 19:12:51, -32
2023-10-25 19:12:51, -28
2023-10-25 19:12:51, -86
2023-10-25 19:12:51, 2
2023-10-25 19:12:51, 45
2023-10-25 19:12:51, 77
2023-10-25 19:12:51, 87
2023-10-25 19:12:51, 79
2023-10-25 19:12:51, 62
2023-10-25 19:12:51, 80
2023-10-25 19:12:52, 109
2023-10-25 19:12:52, -126
2023-10-25 19:12:52, -94
2023-10-25 19:12:52, -39
2023-10-25 19:12:52, -38
2023-10-25 19:12:52, -12
2023-10-25 19:12:52, 6
2023-10-25 19:12:52, -12
2023-10-25 19:12:52, -13
2023-10-25 19:12:52, 13
2023-10-25 19:12:52, 18
2023-10-25 19:12:52, 24
2023-10-25 19:12:52, 53
2023-10-25 19:12:52, 70
2023-10-25 19:12:52, 98
2023-10-25 19:12:52, 100
2023-10-25 19:12:52, 126
2023-10-25 19:12:52, 125
2023-10-25 19:12:52, -118
2023-10-25 19:12:52, -116
2023-10-25 19:12:52, -98
2023-10-25 19:12:52, 91
2023-10-25 19:12:52, -50
2023-10-25 19:12:52, -13
2023-10-25 19:12:52, 44
2023-10-25 19:12:52, 9
2023-10-25 19:12:52, 95
2023-10-25 19:12:52, -120
2023-10-25 19:12:52, -105
2023-10-25 19:12:52, 126
2023-10-25 19:12:52, 120
2023-10-25 19:12:52, -107
2023-10-25 19:12:52, -53
2023-10-25 19:12:52, 21
2023-10-25 19:12:53, 30
2023-10-25 19:12:53, 48
2023-10-25 19:12:53, 41
2023-10-25 19:12:53, 52
2023-10-25 19:12:53, 66
2023-10-25 19:12:53, 88
2023-10-25 19:12:53, -128
2023-10-25 19:12:53, -117
2023-10-25 19:12:53, -82
2023-10-25 19:12:53, -71
2023-10-25 19:12:53, -70
2023-10-25 19:12:53, -58
2023-10-25 19:12:53, -44
2023-10-25 19:12:53, -24
2023-10-25 19:12:53, -3
2023-10-25 19:12:53, -5
2023-10-25 19:12:53, 15
2023-10-25 19:12:53, 18
2023-10-25 19:12:53, 40
2023-10-25 19:12:53, 41
2023-10-25 19:12:53, 58
2023-10-25 19:12:53, 68
2023-10-25 19:12:53, 100
2023-10-25 19:12:53, 118
2023-10-25 19:12:53, -104
2023-10-25 19:12:53, 117
2023-10-25 19:12:53, 8
2023-10-25 19:12:53, 67
2023-10-25 19:12:53, 107
2023-10-25 19:12:53, 32
2023-10-25 19:12:53, 56
2023-10-25 19:12:53, -111
2023-10-25 19:12:53, -40
2023-10-25 19:12:53, 5
2023-10-25 19:12:54, 45
2023-10-25 19:12:54, 64
2023-10-25 19:12:54, 79
2023-10-25 19:12:54, -118
2023-10-25 19:12:54, -108
2023-10-25 19:12:54, -96
2023-10-25 19:12:54, -95
2023-10-25 19:12:54, -101
2023-10-25 19:12:54, -98
2023-10-25 19:12:54, -68
2023-10-25 19:12:54, -51
2023-10-25 19:12:54, -76
2023-10-25 19:12:54, 27
2023-10-25 19:12:54, 35
2023-10-25 19:12:54, 41
2023-10-25 19:12:54, 79
2023-10-25 19:12:54, 58
2023-10-25 19:12:54, 74
2023-10-25 19:12:54, 109
2023-10-25 19:12:54, 110
2023-10-25 19:12:54, 124
2023-10-25 19:12:54, -102
2023-10-25 19:12:54, 104
2023-10-25 19:12:54, -66
2023-10-25 19:12:54, -64
2023-10-25 19:12:54, -27
2023-10-25 19:12:54, -17
2023-10-25 19:12:54, 6
2023-10-25 19:12:54, -3
2023-10-25 19:12:54, 22
2023-10-25 19:12:54, -11
2023-10-25 19:12:54, 127
2023-10-25 19:12:54, -98
2023-10-25 19:12:54, -106
2023-10-25 19:12:54, -49
2023-10-25 19:12:54, 17
2023-10-25 19:12:54, 78
2023-10-25 19:12:54, 100
2023-10-25 19:12:54, 126
2023-10-25 19:12:54, 99
2023-10-25 19:12:54, 105
2023-10-25 19:12:54, -103
2023-10-25 19:12:54, -55
2023-10-25 19:12:54, -39
2023-10-25 19:12:54, -42
2023-10-25 19:12:54, -59
2023-10-25 19:12:54, -68
2023-10-25 19:12:54, -51
2023-10-25 19:12:54, -46
2023-10-25 19:12:54, -10
2023-10-25 19:12:54, 26
2023-10-25 19:12:54, 41
2023-10-25 19:12:54, 45
2023-10-25 19:12:54, 78
2023-10-25 19:12:54, 92
2023-10-25 19:12:54, 93
2023-10-25 19:12:54, 111
2023-10-25 19:12:54, 120
2023-10-25 19:12:54, 126
2023-10-25 19:12:54, -117
2023-10-25 19:12:54, -104
2023-10-25 19:12:54, -100
2023-10-25 19:12:54, -83
2023-10-25 19:12:54, -80
2023-10-25 19:12:54, -52
2023-10-25 19:12:54, -44
2023-10-25 19:12:54, 124
2023-10-25 19:12:54, -39
2023-10-25 19:12:55, 36
2023-10-25 19:12:55, -70
2023-10-25 19:12:55, -52
2023-10-25 19:12:55, 32
2023-10-25 19:12:55, 91
2023-10-25 19:12:55, -120
2023-10-25 19:12:55, -121
2023-10-25 19:12:55, -123
2023-10-25 19:12:55, -70
2023-10-25 19:12:55, -38
2023-10-25 19:12:55, -16
2023-10-25 19:12:55, -27
2023-10-25 19:12:55, -22
2023-10-25 19:12:55, -20
2023-10-25 19:12:55, 11
2023-10-25 19:12:55, 41
2023-10-25 19:12:55, 59
2023-10-25 19:12:55, 87
2023-10-25 19:12:55, 107
2023-10-25 19:12:55, -104
2023-10-25 19:12:55, 122
2023-10-25 19:12:55, -101
2023-10-25 19:12:55, 127
2023-10-25 19:12:55, -111
2023-10-25 19:12:55, -84
2023-10-25 19:12:55, -93
2023-10-25 19:12:55, -81
2023-10-25 19:12:55, -74
2023-10-25 19:12:55, -58
2023-10-25 19:12:55, -29
2023-10-25 19:12:55, -45
2023-10-25 19:12:55, 4
2023-10-25 19:12:55, -19
2023-10-25 19:12:55, -73
2023-10-25 19:12:56, 23
2023-10-25 19:12:56, 90
2023-10-25 19:12:56, -51
2023-10-25 19:12:56, -54
2023-10-25 19:12:56, 27
2023-10-25 19:12:56, 76
2023-10-25 19:12:56, -126
2023-10-25 19:12:56, 83
2023-10-25 19:12:56, -103
2023-10-25 19:12:56, -77
2023-10-25 19:12:56, -50
2023-10-25 19:12:56, -41
2023-10-25 19:12:56, -45
2023-10-25 19:12:56, -64
2023-10-25 19:12:56, 121
2023-10-25 19:12:56, 83
2023-10-25 19:12:56, 80
2023-10-25 19:12:56, 111
2023-10-25 19:12:56, -83
2023-10-25 19:12:56, -30
2023-10-25 19:12:56, 16
2023-10-25 19:12:56, 57
2023-10-25 19:12:56, 72
2023-10-25 19:12:56, 125
2023-10-25 19:12:56, -117
2023-10-25 19:12:56, -78
2023-10-25 19:12:56, -54
2023-10-25 19:12:56, -29
2023-10-25 19:12:56, -44
2023-10-25 19:12:56, -88
2023-10-25 19:12:56, -111
2023-10-25 19:12:56, 48
2023-10-25 19:12:56, 123
2023-10-25 19:12:56, -82
2023-10-25 19:12:57, -44
2023-10-25 19:12:57, 111
2023-10-25 19:12:57, 7
2023-10-25 19:12:57, -108
2023-10-25 19:12:57, 12
2023-10-25 19:12:57, -128
2023-10-25 19:12:57, -32
2023-10-25 19:12:57, 94
2023-10-25 19:12:57, -56
2023-10-25 19:12:57, 42
2023-10-25 19:12:57, -59
2023-10-25 19:12:57, 1
2023-10-25 19:12:57, 126
2023-10-25 19:12:57, 76
2023-10-25 19:12:57, -121
2023-10-25 19:12:57, 41
2023-10-25 19:12:57, 0
2023-10-25 19:12:57, 45
2023-10-25 19:12:57, -29
2023-10-25 19:12:57, -102
2023-10-25 19:12:57, 107
2023-10-25 19:12:57, -57
2023-10-25 19:12:57, 18
2023-10-25 19:12:57, -51
2023-10-25 19:12:57, -76
2023-10-25 19:12:57, -101
2023-10-25 19:12:57, 59
2023-10-25 19:12:57, -3
2023-10-25 19:12:57, -104
2023-10-25 19:12:57, 73
2023-10-25 19:12:57, 78
2023-10-25 19:12:57, -41
2023-10-25 19:12:57, -26
2023-10-25 19:12:57, -118
2023-10-25 19:12:57, -75
2023-10-25 19:12:57, 26
2023-10-25 19:12:57, -107
2023-10-25 19:12:57, -33
2023-10-25 19:12:57, -9
2023-10-25 19:12:57, 109
2023-10-25 19:12:57, 65
2023-10-25 19:12:57, 13
2023-10-25 19:12:57, 107
2023-10-25 19:12:57, 108
2023-10-25 19:12:57, 69
2023-10-25 19:12:57, 105
2023-10-25 19:12:57, 104
2023-10-25 19:12:57, -99
2023-10-25 19:12:57, 53
2023-10-25 19:12:57, -114
2023-10-25 19:12:57, 88
2023-10-25 19:12:57, 108
2023-10-25 19:12:57, 102
2023-10-25 19:12:57, -98
2023-10-25 19:12:57, -31
2023-10-25 19:12:57, -55
2023-10-25 19:12:57, -113
2023-10-25 19:12:57, 88
2023-10-25 19:12:57, 78
2023-10-25 19:12:57, 54
2023-10-25 19:12:57, 72
2023-10-25 19:12:57, 92
2023-10-25 19:12:57, 68
2023-10-25 19:12:57, 61
2023-10-25 19:12:57, 54
2023-10-25 19:12:57, 65
2023-10-25 19:12:57, 56
2023-10-25 19:12:57, 31
2023-10-25 19:12:58, 9
2023-10-25 19:12:58, 3
2023-10-25 19:12:58, 3
2023-10-25 19:12:58, 6
2023-10-25 19:12:58, 32
2023-10-25 19:12:58, 28
2023-10-25 19:12:58, 12
2023-10-25 19:12:58, -15
2023-10-25 19:12:58, -61
2023-10-25 19:12:58, -104
2023-10-25 19:12:58, -109
2023-10-25 19:12:58, -94
2023-10-25 19:12:58, -104
2023-10-25 19:12:58, -111
2023-10-25 19:12:58, -117
2023-10-25 19:12:58, -97
2023-10-25 19:12:58, -82
2023-10-25 19:12:58, -38
2023-10-25 19:12:58, 2
2023-10-25 19:12:58, 13
2023-10-25 19:12:58, 24
2023-10-25 19:12:58, 57
2023-10-25 19:12:58, 68
2023-10-25 19:12:58, 77
2023-10-25 19:12:58, 90
2023-10-25 19:12:58, 90
2023-10-25 19:12:58, 119
2023-10-25 19:12:58, 116
2023-10-25 19:12:58, 123
2023-10-25 19:12:58, 116
2023-10-25 19:12:58, 110
2023-10-25 19:12:58, -110
2023-10-25 19:12:58, -112
2023-10-25 19:12:58, -119
2023-10-25 19:12:59, 115
2023-10-25 19:12:59, -75
2023-10-25 19:12:59, -88
2023-10-25 19:12:59, -99
2023-10-25 19:12:59, -89
2023-10-25 19:12:59, -96
2023-10-25 19:12:59, -85
2023-10-25 19:12:59, -58
2023-10-25 19:12:59, -71
2023-10-25 19:12:59, -80
2023-10-25 19:12:59, 115
2023-10-25 19:12:59, 98
2023-10-25 19:12:59, -112
2023-10-25 19:12:59, 106
2023-10-25 19:12:59, 118
2023-10-25 19:12:59, 125
2023-10-25 19:12:59, -128
2023-10-25 19:12:59, -119
2023-10-25 19:12:59, -104
2023-10-25 19:12:59, -76
2023-10-25 19:12:59, -62
2023-10-25 19:12:59, -44
2023-10-25 19:12:59, -53
2023-10-25 19:12:59, -103
2023-10-25 19:12:59, -52
2023-10-25 19:12:59, -41
2023-10-25 19:12:59, -32
2023-10-25 19:12:59, -5
2023-10-25 19:12:59, 28
2023-10-25 19:12:59, 34
2023-10-25 19:12:59, 38
2023-10-25 19:12:59, 34
2023-10-25 19:12:59, 93
2023-10-25 19:12:59, 113
2023-10-25 19:12:59, 57
2023-10-25 19:12:59, 115
2023-10-25 19:12:59, 125
2023-10-25 19:12:59, -125
2023-10-25 19:12:59, -124
2023-10-25 19:12:59, -117
2023-10-25 19:12:59, 115
2023-10-25 19:12:59, 81
2023-10-25 19:12:59, 70
2023-10-25 19:12:59, 50
2023-10-25 19:12:59, 23
2023-10-25 19:12:59, -54
2023-10-25 19:12:59, -110
2023-10-25 19:12:59, 114
2023-10-25 19:12:59, 122
2023-10-25 19:12:59, -123
2023-10-25 19:12:59, 106
2023-10-25 19:12:59, 94
2023-10-25 19:12:59, 97
2023-10-25 19:12:59, 85
2023-10-25 19:12:59, 94
2023-10-25 19:12:59, 86
2023-10-25 19:12:59, 83
2023-10-25 19:12:59, 34
2023-10-25 19:12:59, -20
2023-10-25 19:12:59, -13
2023-10-25 19:12:59, -8
2023-10-25 19:12:59, -11
2023-10-25 19:12:59, -3
2023-10-25 19:12:59, -22
2023-10-25 19:12:59, -17
2023-10-25 19:12:59, 23
2023-10-25 19:12:59, 3
2023-10-25 19:12:59, -2
2023-10-25 19:13:00, 14
2023-10-25 19:13:00, 16
2023-10-25 19:13:00, 18
2023-10-25 19:13:00, -1
2023-10-25 19:13:00, 9
2023-10-25 19:13:00, 11
2023-10-25 19:13:00, 12
2023-10-25 19:13:00, 26
2023-10-25 19:13:00, 4
2023-10-25 19:13:00, -23
2023-10-25 19:13:00, 0
2023-10-25 19:13:00, 7
2023-10-25 19:13:00, 18
2023-10-25 19:13:00, -4
2023-10-25 19:13:00, -73
2023-10-25 19:13:00, -76
2023-10-25 19:13:00, -88
2023-10-25 19:13:00, -75
2023-10-25 19:13:00, -68
2023-10-25 19:13:00, -59
2023-10-25 19:13:00, -61
2023-10-25 19:13:00, -38
2023-10-25 19:13:00, -14
2023-10-25 19:13:00, -14
2023-10-25 19:13:00, 15
2023-10-25 19:13:00, 14
2023-10-25 19:13:00, 44
2023-10-25 19:13:00, 80
2023-10-25 19:13:00, 74
2023-10-25 19:13:00, 86
2023-10-25 19:13:00, 110
2023-10-25 19:13:00, 119
2023-10-25 19:13:00, 123
2023-10-25 19:13:00, -118
2023-10-25 19:13:01, 122
2023-10-25 19:13:01, 108
2023-10-25 19:13:01, -127
2023-10-25 19:13:01, -119
2023-10-25 19:13:01, 124
2023-10-25 19:13:01, 120
2023-10-25 19:13:01, 125
2023-10-25 19:13:01, 101
2023-10-25 19:13:01, -81
2023-10-25 19:13:01, -126
2023-10-25 19:13:01, -122
2023-10-25 19:13:01, -113
2023-10-25 19:13:01, -124
2023-10-25 19:13:01, 111
2023-10-25 19:13:01, 98
2023-10-25 19:13:01, 58
2023-10-25 19:13:01, 43
2023-10-25 19:13:01, 42
2023-10-25 19:13:01, 36
2023-10-25 19:13:01, 103
2023-10-25 19:13:01, 73
2023-10-25 19:13:01, 75
2023-10-25 19:13:01, 70
2023-10-25 19:13:01, 91
2023-10-25 19:13:01, 85
2023-10-25 19:13:01, 97
2023-10-25 19:13:01, 102
2023-10-25 19:13:01, 90
2023-10-25 19:13:01, 100
2023-10-25 19:13:01, 94
2023-10-25 19:13:01, 62
2023-10-25 19:13:01, 103
2023-10-25 19:13:01, 95
2023-10-25 19:13:01, 107
2023-10-25 19:13:02, -123
2023-10-25 19:13:02, 100
2023-10-25 19:13:02, 111
2023-10-25 19:13:02, 110
2023-10-25 19:13:02, 120
2023-10-25 19:13:02, -105
2023-10-25 19:13:02, -126
2023-10-25 19:13:02, 84
2023-10-25 19:13:02, 107
2023-10-25 19:13:02, 98
2023-10-25 19:13:02, 88
2023-10-25 19:13:02, 70
2023-10-25 19:13:02, 56
2023-10-25 19:13:02, 43
2023-10-25 19:13:02, 45
2023-10-25 19:13:02, 1
2023-10-25 19:13:02, -14
2023-10-25 19:13:02, -73
2023-10-25 19:13:02, -67
2023-10-25 19:13:02, -46
2023-10-25 19:13:02, -67
2023-10-25 19:13:02, -77
2023-10-25 19:13:02, -60
2023-10-25 19:13:02, -95
2023-10-25 19:13:02, -69
2023-10-25 19:13:02, -71
2023-10-25 19:13:02, -61
2023-10-25 19:13:02, -77
2023-10-25 19:13:02, -68
2023-10-25 19:13:02, -71
2023-10-25 19:13:02, -78
2023-10-25 19:13:02, -53
2023-10-25 19:13:02, -79
2023-10-25 19:13:02, -11
2023-10-25 19:13:02, -25
2023-10-25 19:13:02, -41
2023-10-25 19:13:02, -40
2023-10-25 19:13:02, -40
2023-10-25 19:13:02, -34
2023-10-25 19:13:02, -26
2023-10-25 19:13:02, -17
2023-10-25 19:13:02, -33
2023-10-25 19:13:02, -39
2023-10-25 19:13:02, -19
2023-10-25 19:13:02, 1
2023-10-25 19:13:02, -10
2023-10-25 19:13:02, 7
2023-10-25 19:13:02, 2
2023-10-25 19:13:02, 20
2023-10-25 19:13:02, 36
2023-10-25 19:13:02, 27
2023-10-25 19:13:02, -20
2023-10-25 19:13:02, -40
2023-10-25 19:13:02, -57
2023-10-25 19:13:02, -49
2023-10-25 19:13:02, -42
2023-10-25 19:13:02, -27
2023-10-25 19:13:02, -21
2023-10-25 19:13:02, 1
2023-10-25 19:13:02, -18
2023-10-25 19:13:02, -2
2023-10-25 19:13:02, -4
2023-10-25 19:13:02, 38
2023-10-25 19:13:02, 19
2023-10-25 19:13:02, 39
2023-10-25 19:13:02, 12
2023-10-25 19:13:02, 18
2023-10-25 19:13:02, 15
2023-10-25 19:13:03, 41
2023-10-25 19:13:03, 34
2023-10-25 19:13:03, 45
2023-10-25 19:13:03, 34
2023-10-25 19:13:03, 114
2023-10-25 19:13:03, 41
2023-10-25 19:13:03, 53
2023-10-25 19:13:03, 51
2023-10-25 19:13:03, 36
2023-10-25 19:13:03, 45
2023-10-25 19:13:03, 62
2023-10-25 19:13:03, 44
2023-10-25 19:13:03, 72
2023-10-25 19:13:03, 78
2023-10-25 19:13:03, 84
2023-10-25 19:13:03, -122
2023-10-25 19:13:03, 90
2023-10-25 19:13:03, 90
2023-10-25 19:13:03, 104
2023-10-25 19:13:03, 62
2023-10-25 19:13:03, 21
2023-10-25 19:13:03, -11
2023-10-25 19:13:03, -1
2023-10-25 19:13:03, -3
2023-10-25 19:13:03, 19
2023-10-25 19:13:03, 35
2023-10-25 19:13:03, 41
2023-10-25 19:13:03, 23
2023-10-25 19:13:03, 49
2023-10-25 19:13:03, 49
2023-10-25 19:13:03, 51
2023-10-25 19:13:03, 26
2023-10-25 19:13:03, 16
2023-10-25 19:13:03, 40
2023-10-25 19:13:04, 46
2023-10-25 19:13:04, 46
2023-10-25 19:13:04, 64
2023-10-25 19:13:04, 5
2023-10-25 19:13:04, 56
2023-10-25 19:13:04, 66
2023-10-25 19:13:04, 24
2023-10-25 19:13:04, 30
2023-10-25 19:13:04, 50
2023-10-25 19:13:04, 40
2023-10-25 19:13:04, 49
2023-10-25 19:13:04, 48
2023-10-25 19:13:04, 46
2023-10-25 19:13:04, 39
2023-10-25 19:13:04, 4
2023-10-25 19:13:04, 34
2023-10-25 19:13:04, 30
2023-10-25 19:13:04, 49
2023-10-25 19:13:04, 59
2023-10-25 19:13:04, 56
2023-10-25 19:13:04, 57
2023-10-25 19:13:04, 46
2023-10-25 19:13:04, 4
2023-10-25 19:13:04, -24
2023-10-25 19:13:04, -26
2023-10-25 19:13:04, -56
2023-10-25 19:13:04, -2
2023-10-25 19:13:04, 1
2023-10-25 19:13:04, 30
2023-10-25 19:13:04, 12
2023-10-25 19:13:04, 27
2023-10-25 19:13:04, 41
2023-10-25 19:13:04, 53
2023-10-25 19:13:04, 65
2023-10-25 19:13:05, 75
2023-10-25 19:13:05, 83
2023-10-25 19:13:05, 107
2023-10-25 19:13:05, 119
2023-10-25 19:13:05, 115
2023-10-25 19:13:05, 95
2023-10-25 19:13:05, 106
2023-10-25 19:13:05, 104
2023-10-25 19:13:05, 114
2023-10-25 19:13:05, 117
2023-10-25 19:13:05, -95
2023-10-25 19:13:05, -96
2023-10-25 19:13:05, -94
2023-10-25 19:13:05, -90
2023-10-25 19:13:05, -69
2023-10-25 19:13:05, -89
2023-10-25 19:13:05, -79
2023-10-25 19:13:05, -65
2023-10-25 19:13:05, -53
2023-10-25 19:13:05, -49
2023-10-25 19:13:05, -66
2023-10-25 19:13:05, -54
2023-10-25 19:13:05, -60
2023-10-25 19:13:05, -85
2023-10-25 19:13:05, 115
2023-10-25 19:13:05, 95
2023-10-25 19:13:05, 92
2023-10-25 19:13:05, 102
2023-10-25 19:13:05, 99
2023-10-25 19:13:05, 127
2023-10-25 19:13:05, 98
2023-10-25 19:13:05, 113
2023-10-25 19:13:05, 112
2023-10-25 19:13:05, -102
2023-10-25 19:13:05, -93
2023-10-25 19:13:05, -98
2023-10-25 19:13:05, -101
2023-10-25 19:13:05, -98
2023-10-25 19:13:05, -82
2023-10-25 19:13:05, -97
2023-10-25 19:13:05, -85
2023-10-25 19:13:05, -88
2023-10-25 19:13:05, -58
2023-10-25 19:13:05, -66
2023-10-25 19:13:05, -58
2023-10-25 19:13:05, -15
2023-10-25 19:13:05, -1
2023-10-25 19:13:05, -5
2023-10-25 19:13:05, 9
2023-10-25 19:13:05, -7
2023-10-25 19:13:05, 9
2023-10-25 19:13:05, 20
2023-10-25 19:13:05, 21
2023-10-25 19:13:05, 35
2023-10-25 19:13:05, 2
2023-10-25 19:13:05, 18
2023-10-25 19:13:05, -13
2023-10-25 19:13:05, 34
2023-10-25 19:13:05, 17
2023-10-25 19:13:05, -1
2023-10-25 19:13:05, -31
2023-10-25 19:13:05, -59
2023-10-25 19:13:05, -67
2023-10-25 19:13:05, -63
2023-10-25 19:13:05, -83
2023-10-25 19:13:05, -50
2023-10-25 19:13:05, -46
2023-10-25 19:13:05, -93
2023-10-25 19:13:06, -80
2023-10-25 19:13:06, -60
2023-10-25 19:13:06, -57
2023-10-25 19:13:06, -38
2023-10-25 19:13:06, -42
2023-10-25 19:13:06, -49
2023-10-25 19:13:06, -77
2023-10-25 19:13:06, -65
2023-10-25 19:13:06, -44
2023-10-25 19:13:06, -39
2023-10-25 19:13:06, -24
2023-10-25 19:13:06, -29
2023-10-25 19:13:06, -25
2023-10-25 19:13:06, -15
2023-10-25 19:13:06, -19
2023-10-25 19:13:06, 7
2023-10-25 19:13:06, -9
2023-10-25 19:13:06, -12
2023-10-25 19:13:06, 14
2023-10-25 19:13:06, -21
2023-10-25 19:13:06, -12
2023-10-25 19:13:06, -10
2023-10-25 19:13:06, -2
2023-10-25 19:13:06, -5
2023-10-25 19:13:06, -12
2023-10-25 19:13:06, 1
2023-10-25 19:13:06, -6
2023-10-25 19:13:06, -10
2023-10-25 19:13:06, -19
2023-10-25 19:13:06, -7
2023-10-25 19:13:06, -33
2023-10-25 19:13:06, -68
2023-10-25 19:13:06, -102
2023-10-25 19:13:06, -81
2023-10-25 19:13:07, -71
2023-10-25 19:13:07, -74
2023-10-25 19:13:07, -66
2023-10-25 19:13:07, -104
2023-10-25 19:13:07, -89
2023-10-25 19:13:07, -81
2023-10-25 19:13:07, -74
2023-10-25 19:13:07, -79
2023-10-25 19:13:07, -55
2023-10-25 19:13:07, -82
2023-10-25 19:13:07, -74
2023-10-25 19:13:07, -63
2023-10-25 19:13:07, -50
2023-10-25 19:13:07, -61
2023-10-25 19:13:07, -70
2023-10-25 19:13:07, -41
2023-10-25 19:13:07, -54
2023-10-25 19:13:07, -63
2023-10-25 19:13:07, -59
2023-10-25 19:13:07, -76
2023-10-25 19:13:07, -67
2023-10-25 19:13:07, -71
2023-10-25 19:13:07, -81
2023-10-25 19:13:07, -68
2023-10-25 19:13:07, -46
2023-10-25 19:13:07, -53
2023-10-25 19:13:07, -45
2023-10-25 19:13:07, -69
2023-10-25 19:13:07, -55
2023-10-25 19:13:07, -56
2023-10-25 19:13:07, -50
2023-10-25 19:13:07, -62
2023-10-25 19:13:07, -60
2023-10-25 19:13:07, -72
2023-10-25 19:13:08, 127
2023-10-25 19:13:08, 116
2023-10-25 19:13:08, 88
2023-10-25 19:13:08, 112
2023-10-25 19:13:08, 109
2023-10-25 19:13:08, 111
2023-10-25 19:13:08, 124
2023-10-25 19:13:08, -109
2023-10-25 19:13:08, -111
2023-10-25 19:13:08, -109
2023-10-25 19:13:08, -106
2023-10-25 19:13:08, -112
2023-10-25 19:13:08, -127
2023-10-25 19:13:08, 124
2023-10-25 19:13:08, -115
2023-10-25 19:13:08, -101
2023-10-25 19:13:08, -104
2023-10-25 19:13:08, -94
2023-10-25 19:13:08, -125
2023-10-25 19:13:08, -84
2023-10-25 19:13:08, -73
2023-10-25 19:13:08, -78
2023-10-25 19:13:08, -82
2023-10-25 19:13:08, -65
2023-10-25 19:13:08, -65
2023-10-25 19:13:08, -66
2023-10-25 19:13:08, -64
2023-10-25 19:13:08, -77
2023-10-25 19:13:08, -90
2023-10-25 19:13:08, 126
2023-10-25 19:13:08, -60
2023-10-25 19:13:08, -49
2023-10-25 19:13:08, -51
2023-10-25 19:13:08, -47
2023-10-25 19:13:08, -37
2023-10-25 19:13:08, -35
2023-10-25 19:13:08, -49
2023-10-25 19:13:08, -92
2023-10-25 19:13:08, -114
2023-10-25 19:13:08, -122
2023-10-25 19:13:08, -118
2023-10-25 19:13:08, -118
2023-10-25 19:13:08, -88
2023-10-25 19:13:08, 120
2023-10-25 19:13:08, -120
2023-10-25 19:13:08, -116
2023-10-25 19:13:08, -116
2023-10-25 19:13:08, -113
2023-10-25 19:13:08, -112
2023-10-25 19:13:08, -114
2023-10-25 19:13:08, -108
2023-10-25 19:13:08, -120
2023-10-25 19:13:08, -111
2023-10-25 19:13:08, -108
2023-10-25 19:13:08, -74
2023-10-25 19:13:08, -83
2023-10-25 19:13:08, -57
2023-10-25 19:13:08, -64
2023-10-25 19:13:08, -76
2023-10-25 19:13:08, -80
2023-10-25 19:13:08, -64
2023-10-25 19:13:08, -57
2023-10-25 19:13:08, -69
2023-10-25 19:13:08, -71
2023-10-25 19:13:08, -106
2023-10-25 19:13:08, -54
2023-10-25 19:13:08, -33
2023-10-25 19:13:08, -39
2023-10-25 19:13:09, -30
2023-10-25 19:13:09, -38
2023-10-25 19:13:09, -21
2023-10-25 19:13:09, -36
2023-10-25 19:13:09, -51
2023-10-25 19:13:09, -51
2023-10-25 19:13:09, -79
2023-10-25 19:13:09, -101
2023-10-25 19:13:09, 115
2023-10-25 19:13:09, 79
2023-10-25 19:13:09, 101
2023-10-25 19:13:09, 126
2023-10-25 19:13:09, -119
2023-10-25 19:13:09, -117
2023-10-25 19:13:09, -111
2023-10-25 19:13:09, 95
2023-10-25 19:13:09, -88
2023-10-25 19:13:09, -68
2023-10-25 19:13:09, -88
2023-10-25 19:13:09, -104
2023-10-25 19:13:09, -102
2023-10-25 19:13:09, -100
2023-10-25 19:13:09, -83
2023-10-25 19:13:09, -98
2023-10-25 19:13:09, -78
2023-10-25 19:13:09, -73
2023-10-25 19:13:09, -116
2023-10-25 19:13:09, -51
2023-10-25 19:13:09, -57
2023-10-25 19:13:09, -49
2023-10-25 19:13:09, -50
2023-10-25 19:13:09, -70
2023-10-25 19:13:09, -51
2023-10-25 19:13:09, -76
2023-10-25 19:13:10, -68
2023-10-25 19:13:10, -75
2023-10-25 19:13:10, -44
2023-10-25 19:13:10, -49
2023-10-25 19:13:10, -55
2023-10-25 19:13:10, -24
2023-10-25 19:13:10, -19
2023-10-25 19:13:10, -12
2023-10-25 19:13:10, -21
2023-10-25 19:13:10, -8
2023-10-25 19:13:10, -7
2023-10-25 19:13:10, -51
2023-10-25 19:13:10, -116
2023-10-25 19:13:10, 126
2023-10-25 19:13:10, -112
2023-10-25 19:13:10, 118
2023-10-25 19:13:10, -112
2023-10-25 19:13:10, -101
2023-10-25 19:13:10, -109
2023-10-25 19:13:10, 107
2023-10-25 19:13:10, 121
2023-10-25 19:13:10, 126
2023-10-25 19:13:10, 112
2023-10-25 19:13:10, -121
2023-10-25 19:13:10, 120
2023-10-25 19:13:10, -121
2023-10-25 19:13:10, -120
2023-10-25 19:13:10, 125
2023-10-25 19:13:10, -122
2023-10-25 19:13:10, 125
2023-10-25 19:13:10, -103
2023-10-25 19:13:10, -118
2023-10-25 19:13:10, -93
2023-10-25 19:13:10, -99
2023-10-25 19:13:11, -112
2023-10-25 19:13:11, -92
2023-10-25 19:13:11, -92
2023-10-25 19:13:11, -104
2023-10-25 19:13:11, -94
2023-10-25 19:13:11, -101
2023-10-25 19:13:11, -77
2023-10-25 19:13:11, -59
2023-10-25 19:13:11, -61
2023-10-25 19:13:11, -58
2023-10-25 19:13:11, -65
2023-10-25 19:13:11, -82
2023-10-25 19:13:11, -63
2023-10-25 19:13:11, -112
2023-10-25 19:13:11, 101
2023-10-25 19:13:11, 103
2023-10-25 19:13:11, 75
2023-10-25 19:13:11, 103
2023-10-25 19:13:11, 100
2023-10-25 19:13:11, 115
2023-10-25 19:13:11, 100
2023-10-25 19:13:11, 124
2023-10-25 19:13:11, 127
2023-10-25 19:13:11, -99
2023-10-25 19:13:11, -122
2023-10-25 19:13:11, 125
2023-10-25 19:13:11, -114
2023-10-25 19:13:11, -111
2023-10-25 19:13:11, -113
2023-10-25 19:13:11, 126
2023-10-25 19:13:11, -121
2023-10-25 19:13:11, -102
2023-10-25 19:13:11, -76
2023-10-25 19:13:11, -93
2023-10-25 19:13:11, -77
2023-10-25 19:13:11, -80
2023-10-25 19:13:11, -89
2023-10-25 19:13:11, -83
2023-10-25 19:13:11, -85
2023-10-25 19:13:11, -75
2023-10-25 19:13:11, -91
2023-10-25 19:13:11, -84
2023-10-25 19:13:11, -88
2023-10-25 19:13:11, -75
2023-10-25 19:13:11, -65
2023-10-25 19:13:11, 100
2023-10-25 19:13:11, -54
2023-10-25 19:13:11, -54
2023-10-25 19:13:11, -41
2023-10-25 19:13:11, -74
2023-10-25 19:13:11, -109
2023-10-25 19:13:11, 119
2023-10-25 19:13:11, 111
2023-10-25 19:13:11, 112
2023-10-25 19:13:11, 112
2023-10-25 19:13:11, 121
2023-10-25 19:13:11, 89
2023-10-25 19:13:11, 124
2023-10-25 19:13:11, 124
2023-10-25 19:13:11, -93
2023-10-25 19:13:11, -116
2023-10-25 19:13:11, -94
2023-10-25 19:13:11, -97
2023-10-25 19:13:11, -112
2023-10-25 19:13:11, -117
2023-10-25 19:13:11, -85
2023-10-25 19:13:11, -91
2023-10-25 19:13:11, -73
2023-10-25 19:13:12, -58
2023-10-25 19:13:12, -67
2023-10-25 19:13:12, -73
2023-10-25 19:13:12, -56
2023-10-25 19:13:12, -52
2023-10-25 19:13:12, -58
2023-10-25 19:13:12, -37
2023-10-25 19:13:12, -31
2023-10-25 19:13:12, -6
2023-10-25 19:13:12, -18
2023-10-25 19:13:12, -1
2023-10-25 19:13:12, 3
2023-10-25 19:13:12, -6
2023-10-25 19:13:12, -11
2023-10-25 19:13:12, 5
2023-10-25 19:13:12, -1
2023-10-25 19:13:12, 5
2023-10-25 19:13:12, 8
2023-10-25 19:13:12, -40
2023-10-25 19:13:12, -64
2023-10-25 19:13:12, -100
2023-10-25 19:13:12, -120
2023-10-25 19:13:12, -102
2023-10-25 19:13:12, -88
2023-10-25 19:13:12, -80
2023-10-25 19:13:12, -81
2023-10-25 19:13:12, -92
2023-10-25 19:13:12, -93
2023-10-25 19:13:12, -75
2023-10-25 19:13:12, -88
2023-10-25 19:13:12, -75
2023-10-25 19:13:12, -57
2023-10-25 19:13:12, -77
2023-10-25 19:13:12, -98
2023-10-25 19:13:13, -93
2023-10-25 19:13:13, -73
2023-10-25 19:13:13, -72
2023-10-25 19:13:13, -65
2023-10-25 19:13:13, -68
2023-10-25 19:13:13, -82
2023-10-25 19:13:13, -70
2023-10-25 19:13:13, -74
2023-10-25 19:13:13, -78
2023-10-25 19:13:13, -79
2023-10-25 19:13:13, -80
2023-10-25 19:13:13, -98
2023-10-25 19:13:13, -80
2023-10-25 19:13:13, -73
2023-10-25 19:13:13, -52
2023-10-25 19:13:13, -65
2023-10-25 19:13:13, -45
2023-10-25 19:13:13, -52
2023-10-25 19:13:13, -71
2023-10-25 19:13:13, -23
2023-10-25 19:13:13, -82
2023-10-25 19:13:13, -110
2023-10-25 19:13:13, 86
2023-10-25 19:13:13, 76
2023-10-25 19:13:13, 62
2023-10-25 19:13:13, 72
2023-10-25 19:13:13, 77
2023-10-25 19:13:13, 86
2023-10-25 19:13:13, 76
2023-10-25 19:13:13, 67
2023-10-25 19:13:13, 121
2023-10-25 19:13:13, 95
2023-10-25 19:13:13, 105
2023-10-25 19:13:13, 115
2023-10-25 19:13:14, 64
2023-10-25 19:13:14, -123
2023-10-25 19:13:14, -126
2023-10-25 19:13:14, -117
2023-10-25 19:13:14, -114
2023-10-25 19:13:14, -112
2023-10-25 19:13:14, -100
2023-10-25 19:13:14, 81
2023-10-25 19:13:14, -92
2023-10-25 19:13:14, -107
2023-10-25 19:13:14, -93
2023-10-25 19:13:14, -81
2023-10-25 19:13:14, -83
2023-10-25 19:13:14, -82
2023-10-25 19:13:14, -66
2023-10-25 19:13:14, -76
2023-10-25 19:13:14, -73
2023-10-25 19:13:14, -63
2023-10-25 19:13:14, -57
2023-10-25 19:13:14, -55
2023-10-25 19:13:14, -60
2023-10-25 19:13:14, -20
2023-10-25 19:13:14, -34
2023-10-25 19:13:14, -51
2023-10-25 19:13:14, -97
2023-10-25 19:13:14, -127
2023-10-25 19:13:14, 107
2023-10-25 19:13:14, 121
2023-10-25 19:13:14, -122
2023-10-25 19:13:14, -116
2023-10-25 19:13:14, -123
2023-10-25 19:13:14, -116
2023-10-25 19:13:14, -100
2023-10-25 19:13:14, -107
2023-10-25 19:13:14, -95
2023-10-25 19:13:14, -80
2023-10-25 19:13:14, -76
2023-10-25 19:13:14, -86
2023-10-25 19:13:14, -74
2023-10-25 19:13:14, -62
2023-10-25 19:13:14, -58
2023-10-25 19:13:14, -74
2023-10-25 19:13:14, -59
2023-10-25 19:13:14, -59
2023-10-25 19:13:14, -42
2023-10-25 19:13:14, -40
2023-10-25 19:13:14, -30
2023-10-25 19:13:14, -54
2023-10-25 19:13:14, -58
2023-10-25 19:13:14, -32
2023-10-25 19:13:14, -29
2023-10-25 19:13:14, -53
2023-10-25 19:13:14, -54
2023-10-25 19:13:14, -48
2023-10-25 19:13:14, -54
2023-10-25 19:13:14, -42
2023-10-25 19:13:14, -10
2023-10-25 19:13:14, -25
2023-10-25 19:13:14, -29
2023-10-25 19:13:14, -27
2023-10-25 19:13:14, -24
2023-10-25 19:13:14, -53
2023-10-25 19:13:14, -116
2023-10-25 19:13:14, 108
2023-10-25 19:13:14, -119
2023-10-25 19:13:14, 122
2023-10-25 19:13:14, -110
2023-10-25 19:13:14, 125
2023-10-25 19:13:15, -123
2023-10-25 19:13:15, -109
2023-10-25 19:13:15, -112
2023-10-25 19:13:15, -94
2023-10-25 19:13:15, -53
2023-10-25 19:13:15, -69
2023-10-25 19:13:15, -86
2023-10-25 19:13:15, -62
2023-10-25 19:13:15, -37
2023-10-25 19:13:15, -34
2023-10-25 19:13:15, -29
2023-10-25 19:13:15, -14
2023-10-25 19:13:15, 13
2023-10-25 19:13:15, 3
2023-10-25 19:13:15, 18
2023-10-25 19:13:15, 46
2023-10-25 19:13:15, 34
2023-10-25 19:13:15, 29
2023-10-25 19:13:15, 31
2023-10-25 19:13:15, 32
2023-10-25 19:13:15, 48
2023-10-25 19:13:15, 38
2023-10-25 19:13:15, 12
2023-10-25 19:13:15, 23
2023-10-25 19:13:15, 36
2023-10-25 19:13:15, 39
2023-10-25 19:13:15, 15
2023-10-25 19:13:15, 38
2023-10-25 19:13:15, 39
2023-10-25 19:13:15, 36
2023-10-25 19:13:15, -4
2023-10-25 19:13:15, -23
2023-10-25 19:13:15, -66
2023-10-25 19:13:15, -81
2023-10-25 19:13:16, -111
2023-10-25 19:13:16, -97
2023-10-25 19:13:16, -102
2023-10-25 19:13:16, 99
2023-10-25 19:13:16, -93
2023-10-25 19:13:16, -71
2023-10-25 19:13:16, -91
2023-10-25 19:13:16, -59
2023-10-25 19:13:16, -71
2023-10-25 19:13:16, -59
2023-10-25 19:13:16, -56
2023-10-25 19:13:16, -83
2023-10-25 19:13:16, -66
2023-10-25 19:13:16, -58
2023-10-25 19:13:16, -44
2023-10-25 19:13:16, -62
2023-10-25 19:13:16, -47
2023-10-25 19:13:16, -40
2023-10-25 19:13:16, -44
2023-10-25 19:13:16, -31
2023-10-25 19:13:16, -37
2023-10-25 19:13:16, -26
2023-10-25 19:13:16, -15
2023-10-25 19:13:16, -47
2023-10-25 19:13:16, -39
2023-10-25 19:13:16, -43
2023-10-25 19:13:16, -31
2023-10-25 19:13:16, -34
2023-10-25 19:13:16, -41
2023-10-25 19:13:16, -24
2023-10-25 19:13:16, -8
2023-10-25 19:13:16, -24
2023-10-25 19:13:16, -13
2023-10-25 19:13:16, -38
2023-10-25 19:13:17, -78
2023-10-25 19:13:17, -119
2023-10-25 19:13:17, 112
2023-10-25 19:13:17, 122
2023-10-25 19:13:17, -118
2023-10-25 19:13:17, -114
2023-10-25 19:13:17, -95
2023-10-25 19:13:17, -100
2023-10-25 19:13:17, -102
2023-10-25 19:13:17, -87
2023-10-25 19:13:17, -79
2023-10-25 19:13:17, -80
2023-10-25 19:13:17, -71
2023-10-25 19:13:17, -71
2023-10-25 19:13:17, -55
2023-10-25 19:13:17, -42
2023-10-25 19:13:17, -35
2023-10-25 19:13:17, -28
2023-10-25 19:13:17, -33
2023-10-25 19:13:17, -20
2023-10-25 19:13:17, -11
2023-10-25 19:13:17, -2
2023-10-25 19:13:17, -14
2023-10-25 19:13:17, 28
2023-10-25 19:13:17, -15
2023-10-25 19:13:17, -3
2023-10-25 19:13:17, -18
2023-10-25 19:13:17, -29
2023-10-25 19:13:17, -7
2023-10-25 19:13:17, -12
2023-10-25 19:13:17, -11
2023-10-25 19:13:17, 23
2023-10-25 19:13:17, 4
2023-10-25 19:13:17, 24
2023-10-25 19:13:17, 2
2023-10-25 19:13:17, -52
2023-10-25 19:13:17, -82
2023-10-25 19:13:17, -103
2023-10-25 19:13:17, -76
2023-10-25 19:13:17, -65
2023-10-25 19:13:17, -72
2023-10-25 19:13:17, -72
2023-10-25 19:13:17, -58
2023-10-25 19:13:17, -57
2023-10-25 19:13:17, -61
2023-10-25 19:13:17, -88
2023-10-25 19:13:17, -24
2023-10-25 19:13:17, -28
2023-10-25 19:13:17, -20
2023-10-25 19:13:17, -20
2023-10-25 19:13:17, -35
2023-10-25 19:13:17, -31
2023-10-25 19:13:17, -22
2023-10-25 19:13:17, -37
2023-10-25 19:13:17, -13
2023-10-25 19:13:17, -41
2023-10-25 19:13:17, -81
2023-10-25 19:13:17, -11
2023-10-25 19:13:17, 0
2023-10-25 19:13:17, 8
2023-10-25 19:13:17, 23
2023-10-25 19:13:17, 25
2023-10-25 19:13:17, 8
2023-10-25 19:13:17, 18
2023-10-25 19:13:17, 20
2023-10-25 19:13:17, 29
2023-10-25 19:13:17, 10
2023-10-25 19:13:17, 6
2023-10-25 19:13:18, 16
2023-10-25 19:13:18, 34
2023-10-25 19:13:18, 30
2023-10-25 19:13:18, 1
2023-10-25 19:13:18, -29
2023-10-25 19:13:18, -59
2023-10-25 19:13:18, -81
2023-10-25 19:13:18, -64
2023-10-25 19:13:18, -72
2023-10-25 19:13:18, -67
2023-10-25 19:13:18, -43
2023-10-25 19:13:18, -43
2023-10-25 19:13:18, -56
2023-10-25 19:13:18, -56
2023-10-25 19:13:18, -43
2023-10-25 19:13:18, -35
2023-10-25 19:13:18, -39
2023-10-25 19:13:18, -36
2023-10-25 19:13:18, -41
2023-10-25 19:13:18, -42
2023-10-25 19:13:18, -25
2023-10-25 19:13:18, 9
2023-10-25 19:13:18, 10
2023-10-25 19:13:18, 7
2023-10-25 19:13:18, 10
2023-10-25 19:13:18, 21
2023-10-25 19:13:18, 21
2023-10-25 19:13:18, 22
2023-10-25 19:13:18, 26
2023-10-25 19:13:18, 35
2023-10-25 19:13:18, 17
2023-10-25 19:13:18, 35
2023-10-25 19:13:18, 49
2023-10-25 19:13:18, 33
2023-10-25 19:13:19, 43
2023-10-25 19:13:19, 37
2023-10-25 19:13:19, 44
2023-10-25 19:13:19, 48
2023-10-25 19:13:19, 62
2023-10-25 19:13:19, 25
2023-10-25 19:13:19, 11
2023-10-25 19:13:19, -9
2023-10-25 19:13:19, -44
2023-10-25 19:13:19, -68
2023-10-25 19:13:19, -62
2023-10-25 19:13:19, -81
2023-10-25 19:13:19, -66
2023-10-25 19:13:19, -64
2023-10-25 19:13:19, -53
2023-10-25 19:13:19, -37
2023-10-25 19:13:19, -41
2023-10-25 19:13:19, -42
2023-10-25 19:13:19, -32
2023-10-25 19:13:19, -59
2023-10-25 19:13:19, -37
2023-10-25 19:13:19, -61
2023-10-25 19:13:19, -99
2023-10-25 19:13:19, -80
2023-10-25 19:13:19, -87
2023-10-25 19:13:19, -78
2023-10-25 19:13:19, -82
2023-10-25 19:13:19, -58
2023-10-25 19:13:19, -77
2023-10-25 19:13:19, -77
2023-10-25 19:13:19, -10
2023-10-25 19:13:19, -83
2023-10-25 19:13:19, -80
2023-10-25 19:13:19, -86
2023-10-25 19:13:20, -69
2023-10-25 19:13:20, -86
2023-10-25 19:13:20, -85
2023-10-25 19:13:20, -72
2023-10-25 19:13:20, -75
2023-10-25 19:13:20, -69
2023-10-25 19:13:20, -79
2023-10-25 19:13:20, -97
2023-10-25 19:13:20, -96
2023-10-25 19:13:20, 111
2023-10-25 19:13:20, 74
2023-10-25 19:13:20, 64
2023-10-25 19:13:20, 74
2023-10-25 19:13:20, 75
2023-10-25 19:13:20, 100
2023-10-25 19:13:20, 105
2023-10-25 19:13:20, 106
2023-10-25 19:13:20, -119
2023-10-25 19:13:20, 82
2023-10-25 19:13:20, -76
2023-10-25 19:13:20, -69
2023-10-25 19:13:20, -38
2023-10-25 19:13:20, -1
2023-10-25 19:13:20, 31
2023-10-25 19:13:20, 44
2023-10-25 19:13:20, 49
2023-10-25 19:13:20, 79
2023-10-25 19:13:20, 88
2023-10-25 19:13:20, 98
2023-10-25 19:13:20, 74
2023-10-25 19:13:20, -94
2023-10-25 19:13:20, -63
2023-10-25 19:13:20, -28
2023-10-25 19:13:20, -2
2023-10-25 19:13:20, 15
2023-10-25 19:13:20, 31
2023-10-25 19:13:20, -127
2023-10-25 19:13:20, 55
2023-10-25 19:13:20, 14
2023-10-25 19:13:20, 84
2023-10-25 19:13:20, 95
2023-10-25 19:13:20, 87
2023-10-25 19:13:20, -62
2023-10-25 19:13:20, 39
2023-10-25 19:13:20, -48
2023-10-25 19:13:20, -79
2023-10-25 19:13:20, 116
2023-10-25 19:13:20, 121
2023-10-25 19:13:20, -110
2023-10-25 19:13:20, 10
2023-10-25 19:13:20, -94
2023-10-25 19:13:20, -91
2023-10-25 19:13:20, -64
2023-10-25 19:13:20, -11
2023-10-25 19:13:20, -43
2023-10-25 19:13:20, -107
2023-10-25 19:13:20, -9
2023-10-25 19:13:20, -9
2023-10-25 19:13:20, -14
2023-10-25 19:13:20, -15
2023-10-25 19:13:20, 81
2023-10-25 19:13:20, 25
2023-10-25 19:13:20, 65
2023-10-25 19:13:20, 122
2023-10-25 19:13:20, 113
2023-10-25 19:13:20, -128
2023-10-25 19:13:20, -44
2023-10-25 19:13:20, 110
2023-10-25 19:13:21, 51
2023-10-25 19:13:21, 110
2023-10-25 19:13:21, 118
2023-10-25 19:13:21, 111
2023-10-25 19:13:21, 112
2023-10-25 19:13:21, 119
2023-10-25 19:13:21, 58
2023-10-25 19:13:21, -123
2023-10-25 19:13:21, -128
2023-10-25 19:13:21, 125
2023-10-25 19:13:21, 81
2023-10-25 19:13:21, 124
2023-10-25 19:13:21, -62
2023-10-25 19:13:21, 78
2023-10-25 19:13:21, 117
2023-10-25 19:13:21, -122
2023-10-25 19:13:21, -94
2023-10-25 19:13:21, -94
2023-10-25 19:13:21, -84
2023-10-25 19:13:21, -95
2023-10-25 19:13:21, -49
2023-10-25 19:13:21, -44
2023-10-25 19:13:21, -42
2023-10-25 19:13:21, -46
2023-10-25 19:13:21, -68
2023-10-25 19:13:21, -54
2023-10-25 19:13:21, -7
2023-10-25 19:13:21, -32
2023-10-25 19:13:21, -31
2023-10-25 19:13:21, -33
2023-10-25 19:13:21, -38
2023-10-25 19:13:21, -34
2023-10-25 19:13:21, -30
2023-10-25 19:13:21, -44
2023-10-25 19:13:22, -27
2023-10-25 19:13:22, -10
2023-10-25 19:13:22, -5
2023-10-25 19:13:22, -1
2023-10-25 19:13:22, 16
2023-10-25 19:13:22, 16
2023-10-25 19:13:22, 20
2023-10-25 19:13:22, 28
2023-10-25 19:13:22, 36
2023-10-25 19:13:22, 53
2023-10-25 19:13:22, 33
2023-10-25 19:13:22, -18
2023-10-25 19:13:22, -81
2023-10-25 19:13:22, -127
2023-10-25 19:13:22, -7
2023-10-25 19:13:22, 15
2023-10-25 19:13:22, 19
2023-10-25 19:13:22, 14
2023-10-25 19:13:22, -7
2023-10-25 19:13:22, -3
2023-10-25 19:13:22, -4
2023-10-25 19:13:22, 5
2023-10-25 19:13:22, 25
2023-10-25 19:13:22, 25
2023-10-25 19:13:22, 24
2023-10-25 19:13:22, -74
2023-10-25 19:13:22, 4
2023-10-25 19:13:22, 20
2023-10-25 19:13:22, 13
2023-10-25 19:13:22, 21
2023-10-25 19:13:22, 15
2023-10-25 19:13:22, 15
2023-10-25 19:13:22, 36
2023-10-25 19:13:22, 13
2023-10-25 19:13:23, 26
2023-10-25 19:13:23, 16
2023-10-25 19:13:23, 33
2023-10-25 19:13:23, 20
2023-10-25 19:13:23, 25
2023-10-25 19:13:23, 18
2023-10-25 19:13:23, 74
2023-10-25 19:13:23, 63
2023-10-25 19:13:23, 77
2023-10-25 19:13:23, 95
2023-10-25 19:13:23, 99
2023-10-25 19:13:23, 48
2023-10-25 19:13:23, 27
2023-10-25 19:13:23, -34
2023-10-25 19:13:23, -53
2023-10-25 19:13:23, -28
2023-10-25 19:13:23, 14
2023-10-25 19:13:23, 5
2023-10-25 19:13:23, -22
2023-10-25 19:13:23, -22
2023-10-25 19:13:23, -13
2023-10-25 19:13:23, -4
2023-10-25 19:13:23, 13
2023-10-25 19:13:23, 15
2023-10-25 19:13:23, 11
2023-10-25 19:13:23, 31
2023-10-25 19:13:23, 13
2023-10-25 19:13:23, 1
2023-10-25 19:13:23, 26
2023-10-25 19:13:23, 41
2023-10-25 19:13:23, 36
2023-10-25 19:13:23, 53
2023-10-25 19:13:23, 66
2023-10-25 19:13:23, 63
2023-10-25 19:13:23, 65
2023-10-25 19:13:23, 89
2023-10-25 19:13:23, 116
2023-10-25 19:13:23, 102
2023-10-25 19:13:23, 100
2023-10-25 19:13:23, 83
2023-10-25 19:13:23, 89
2023-10-25 19:13:23, 109
2023-10-25 19:13:23, -127
2023-10-25 19:13:23, 96
2023-10-25 19:13:23, 116
2023-10-25 19:13:23, 97
2023-10-25 19:13:23, 5
2023-10-25 19:13:23, -3
2023-10-25 19:13:23, -4
2023-10-25 19:13:23, 0
2023-10-25 19:13:23, 44
2023-10-25 19:13:23, 51
2023-10-25 19:13:23, 50
2023-10-25 19:13:23, 68
2023-10-25 19:13:23, 82
2023-10-25 19:13:23, 112
2023-10-25 19:13:23, -94
2023-10-25 19:13:23, -86
2023-10-25 19:13:23, -85
2023-10-25 19:13:23, -86
2023-10-25 19:13:23, -59
2023-10-25 19:13:23, -42
2023-10-25 19:13:23, -31
2023-10-25 19:13:23, -41
2023-10-25 19:13:23, -8
2023-10-25 19:13:23, 5
2023-10-25 19:13:23, 21
2023-10-25 19:13:23, 32
2023-10-25 19:13:24, 41
2023-10-25 19:13:24, 44
2023-10-25 19:13:24, 51
2023-10-25 19:13:24, 51
2023-10-25 19:13:24, 37
2023-10-25 19:13:24, 54
2023-10-25 19:13:24, 70
2023-10-25 19:13:24, 25
2023-10-25 19:13:24, 62
2023-10-25 19:13:24, 45
2023-10-25 19:13:24, -70
2023-10-25 19:13:24, 89
2023-10-25 19:13:24, 40
2023-10-25 19:13:24, 13
2023-10-25 19:13:24, -23
2023-10-25 19:13:24, 29
2023-10-25 19:13:24, 46
2023-10-25 19:13:24, 104
2023-10-25 19:13:24, 107
2023-10-25 19:13:24, 122
2023-10-25 19:13:24, 114
2023-10-25 19:13:24, 53
2023-10-25 19:13:24, -116
2023-10-25 19:13:24, -113
2023-10-25 19:13:24, -125
2023-10-25 19:13:24, 112
2023-10-25 19:13:24, 111
2023-10-25 19:13:24, 108
2023-10-25 19:13:24, 114
2023-10-25 19:13:24, 116
2023-10-25 19:13:24, 102
2023-10-25 19:13:24, -114
2023-10-25 19:13:24, -78
2023-10-25 19:13:24, -89
2023-10-25 19:13:25, -75
2023-10-25 19:13:25, -88
2023-10-25 19:13:25, -126
2023-10-25 19:13:25, -107
2023-10-25 19:13:25, 78
2023-10-25 19:13:25, 69
2023-10-25 19:13:25, 93
2023-10-25 19:13:25, 90
2023-10-25 19:13:25, 96
2023-10-25 19:13:25, 28
2023-10-25 19:13:25, 32
2023-10-25 19:13:25, 36
2023-10-25 19:13:25, 88
2023-10-25 19:13:25, -59
2023-10-25 19:13:25, -36
2023-10-25 19:13:25, -18
2023-10-25 19:13:25, -2
2023-10-25 19:13:25, 70
2023-10-25 19:13:25, 97
2023-10-25 19:13:25, -103
2023-10-25 19:13:25, -69
2023-10-25 19:13:25, 3
2023-10-25 19:13:25, 81
2023-10-25 19:13:25, -124
2023-10-25 19:13:25, 111
2023-10-25 19:13:25, -124
2023-10-25 19:13:25, 114
2023-10-25 19:13:25, 110
2023-10-25 19:13:25, 74
2023-10-25 19:13:25, 75
2023-10-25 19:13:25, 93
2023-10-25 19:13:25, -111
2023-10-25 19:13:25, 123
2023-10-25 19:13:25, 92
2023-10-25 19:13:25, 19
2023-10-25 19:13:25, -76
2023-10-25 19:13:25, 106
2023-10-25 19:13:25, 35
2023-10-25 19:13:25, 30
2023-10-25 19:13:25, 41
2023-10-25 19:13:25, 96
2023-10-25 19:13:25, 77
2023-10-25 19:13:25, -119
2023-10-25 19:13:25, -19
2023-10-25 19:13:25, -109
2023-10-25 19:13:25, 90
2023-10-25 19:13:25, 58
2023-10-25 19:13:25, 24
2023-10-25 19:13:25, 6
2023-10-25 19:13:25, 16
2023-10-25 19:13:25, 15
2023-10-25 19:13:25, 35
2023-10-25 19:13:25, 92
2023-10-25 19:13:25, 64
2023-10-25 19:13:25, 60
2023-10-25 19:13:25, 75
2023-10-25 19:13:25, 53
2023-10-25 19:13:25, 89
2023-10-25 19:13:25, -90
2023-10-25 19:13:25, -50
2023-10-25 19:13:25, -33
2023-10-25 19:13:25, 1
2023-10-25 19:13:25, 38
2023-10-25 19:13:25, 25
2023-10-25 19:13:25, 109
2023-10-25 19:13:25, 74
2023-10-25 19:13:25, 92
2023-10-25 19:13:25, 96
2023-10-25 19:13:26, 77
2023-10-25 19:13:26, 68
2023-10-25 19:13:26, 102
2023-10-25 19:13:26, 114
2023-10-25 19:13:26, -117
2023-10-25 19:13:26, -116
2023-10-25 19:13:26, 39
2023-10-25 19:13:26, -7
2023-10-25 19:13:26, -32
2023-10-25 19:13:26, 9
2023-10-25 19:13:26, 31
2023-10-25 19:13:26, 51
2023-10-25 19:13:26, 90
2023-10-25 19:13:26, -121
2023-10-25 19:13:26, -104
2023-10-25 19:13:26, -78
2023-10-25 19:13:26, -51
2023-10-25 19:13:26, -16
2023-10-25 19:13:26, -14
2023-10-25 19:13:26, 14
2023-10-25 19:13:26, 26
2023-10-25 19:13:26, 28
2023-10-25 19:13:26, 55
2023-10-25 19:13:26, 74
2023-10-25 19:13:26, 108
2023-10-25 19:13:26, 124
2023-10-25 19:13:26, -75
2023-10-25 19:13:26, -54
2023-10-25 19:13:26, -34
2023-10-25 19:13:26, 3
2023-10-25 19:13:26, 17
2023-10-25 19:13:26, 17
2023-10-25 19:13:26, 17
2023-10-25 19:13:26, 17
2023-10-25 19:13:27, 17
2023-10-25 19:13:27, 17
2023-10-25 19:13:27, 17
2023-10-25 19:13:27, 17
2023-10-25 19:13:27, 17
2023-10-25 19:13:27, 17
2023-10-25 19:13:27, 17
2023-10-25 19:13:27, 17
2023-10-25 19:13:27, 17
2023-10-25 19:13:27, 17
2023-10-25 19:13:27, 17
2023-10-25 19:13:27, 17
2023-10-25 19:13:27, 17
2023-10-25 19:13:27, 17
2023-10-25 19:13:27, 17
2023-10-25 19:13:27, 17
2023-10-25 19:13:27, 17
2023-10-25 19:13:27, 17
2023-10-25 19:13:27, 17
2023-10-25 19:13:27, 17
2023-10-25 19:13:27, 17
2023-10-25 19:13:27, 17
2023-10-25 19:13:27, 17
2023-10-25 19:13:27, 17
2023-10-25 19:13:27, 17
2023-10-25 19:13:27, 17
2023-10-25 19:13:27, 17
2023-10-25 19:13:27, 17
2023-10-25 19:13:27, 17
2023-10-25 19:13:27, 17
2023-10-25 19:13:27, 17
2023-10-25 19:13:27, 17
2023-10-25 19:13:27, 17
2023-10-25 19:13:27, 17
2023-10-25 19:13:28, 17
2023-10-25 19:13:28, 17
2023-10-25 19:13:28, 17
2023-10-25 19:13:28, 17
2023-10-25 19:13:28, 17
2023-10-25 19:13:28, 17
2023-10-25 19:13:28, 17
2023-10-25 19:13:28, 17
2023-10-25 19:13:28, 17
2023-10-25 19:13:28, 17
2023-10-25 19:13:28, 17
2023-10-25 19:13:28, 17
2023-10-25 19:13:28, 17
2023-10-25 19:13:28, 17
2023-10-25 19:13:28, 17
2023-10-25 19:13:28, 17
2023-10-25 19:13:28, 17
2023-10-25 19:13:28, 17
2023-10-25 19:13:28, 17
2023-10-25 19:13:28, 17
2023-10-25 19:13:28, 17
2023-10-25 19:13:28, 17
2023-10-25 19:13:28, 17
2023-10-25 19:13:28, 17
2023-10-25 19:13:28, 17
2023-10-25 19:13:28, 17
2023-10-25 19:13:28, 17
2023-10-25 19:13:28, 17
2023-10-25 19:13:28, 17
2023-10-25 19:13:28, 17
2023-10-25 19:13:28, 17
2023-10-25 19:13:28, 17
2023-10-25 19:13:28, 17
2023-10-25 19:13:28, 17
2023-10-25 19:13:28, 17
2023-10-25 19:13:28, 17
2023-10-25 19:13:28, 17
2023-10-25 19:13:28, 17
2023-10-25 19:13:28, 17
2023-10-25 19:13:28, 17
2023-10-25 19:13:28, 17
2023-10-25 19:13:28, 17
2023-10-25 19:13:28, 17
2023-10-25 19:13:28, 17
2023-10-25 19:13:28, 17
2023-10-25 19:13:28, 17
2023-10-25 19:13:28, 17
2023-10-25 19:13:28, 17
2023-10-25 19:13:28, 17
2023-10-25 19:13:28, 17
2023-10-25 19:13:28, 17
2023-10-25 19:13:28, 17
2023-10-25 19:13:28, 17
2023-10-25 19:13:28, 17
2023-10-25 19:13:28, 17
2023-10-25 19:13:28, 17
2023-10-25 19:13:28, 17
2023-10-25 19:13:28, 17
2023-10-25 19:13:28, 17
2023-10-25 19:13:28, 17
2023-10-25 19:13:28, 17
2023-10-25 19:13:28, 17
2023-10-25 19:13:28, 17
2023-10-25 19:13:28, 17
2023-10-25 19:13:28, 17
2023-10-25 19:13:28, 17
2023-10-25 19:13:28, 17
2023-10-25 19:13:28, 17
2023-10-25 19:13:29, 17
2023-10-25 19:13:29, 17
2023-10-25 19:13:29, 17
2023-10-25 19:13:29, 17
2023-10-25 19:13:29, 17
2023-10-25 19:13:29, 17
2023-10-25 19:13:29, 17
2023-10-25 19:13:29, 17
2023-10-25 19:13:29, 17
2023-10-25 19:13:29, 17
2023-10-25 19:13:29, 17
2023-10-25 19:13:29, 17
2023-10-25 19:13:29, 17
2023-10-25 19:13:29, 17
2023-10-25 19:13:29, 17
2023-10-25 19:13:29, 17
2023-10-25 19:13:29, 17
2023-10-25 19:13:29, 17
2023-10-25 19:13:29, 17
2023-10-25 19:13:29, 17
2023-10-25 19:13:29, 17
2023-10-25 19:13:29, 17
2023-10-25 19:13:29, 17
2023-10-25 19:13:29, 17
2023-10-25 19:13:29, 17
2023-10-25 19:13:29, 17
2023-10-25 19:13:29, 17
2023-10-25 19:13:29, 17
2023-10-25 19:13:29, 17
2023-10-25 19:13:29, 17
2023-10-25 19:13:29, 17
2023-10-25 19:13:29, 17
2023-10-25 19:13:29, 17
2023-10-25 19:13:29, 17
2023-10-25 19:13:30, 17
2023-10-25 19:13:30, 17
2023-10-25 19:13:30, 17
2023-10-25 19:13:30, 17
2023-10-25 19:13:30, 17
2023-10-25 19:13:30, 17
2023-10-25 19:13:30, 17
2023-10-25 19:13:30, 17
2023-10-25 19:13:30, 17
2023-10-25 19:13:30, 17
2023-10-25 19:13:30, 17
2023-10-25 19:13:30, 17
2023-10-25 19:13:30, 17
2023-10-25 19:13:30, 17
2023-10-25 19:13:30, 17
2023-10-25 19:13:30, 17
2023-10-25 19:13:30, 17
2023-10-25 19:13:30, 17
2023-10-25 19:13:30, 17
2023-10-25 19:13:30, 17
2023-10-25 19:13:30, 17
2023-10-25 19:13:30, 17
2023-10-25 19:13:30, 17
2023-10-25 19:13:30, 17
2023-10-25 19:13:30, 17
2023-10-25 19:13:30, 17
2023-10-25 19:13:30, 17
2023-10-25 19:13:30, 17
2023-10-25 19:13:30, 17
2023-10-25 19:13:30, 17
2023-10-25 19:13:30, 17
2023-10-25 19:13:30, 17
2023-10-25 19:13:30, 17
2023-10-25 19:13:30, 17