1705104892.5480056 77271
1705104892.5480056 77260
1705104892.5490177 77250
1705104892.5490177 77253
1705104892.5500143 77232
1705104892.5510087 77217
1705104892.5510087 77216
1705104892.551827 77221
1705104892.5528998 77228
1705104892.5528998 77233
1705104892.5539043 77259
1705104892.7768996 77291
1705104892.7768996 77312
1705104892.7779925 77350
1705104892.7779925 77359
1705104892.7789347 77346
1705104892.779946 77332
1705104892.779946 77323
1705104892.7812214 77282
1705104892.7812214 77266
1705104892.7818942 77255
1705104892.7834287 77278
1705104893.0059855 77297
1705104893.0059855 77320
1705104893.00696 77329
1705104893.00696 77338
1705104893.0079877 77345
1705104893.008947 77335
1705104893.008947 77334
1705104893.0099914 77341
1705104893.0099914 77344
1705104893.0109525 77345
1705104893.0109525 77357
1705104893.2349825 77361
1705104893.2349825 77362
1705104893.2359238 77374
1705104893.2359238 77384
1705104893.2369359 77390
1705104893.2379894 77396
1705104893.2379894 77409
1705104893.2389734 77427
1705104893.2389734 77427
1705104893.2398107 77404
1705104893.2410104 77395
1705104893.464002 77357
1705104893.464002 77366
1705104893.4649982 77360
1705104893.4649982 77348
1705104893.4659636 77338
1705104893.4667766 77324
1705104893.4667766 77323
1705104893.4679716 77315
1705104893.4679716 77291
1705104893.4689772 77248
1705104893.4699883 77232
1705104893.6925042 77213
1705104893.6925042 77203
1705104893.6934338 77197
1705104893.6934338 77198
1705104893.6945333 77213
1705104893.6958346 77229
1705104893.6958346 77241
1705104893.6968863 77275
1705104893.6968863 77311
1705104893.6982996 77327
1705104893.698904 77336
1705104893.9223063 77342
1705104893.9223063 77347
1705104893.9223063 77365
1705104893.9233177 77394
1705104893.9233177 77384
1705104893.924316 77407
1705104893.924316 77410
1705104893.9259377 77405
1705104893.9269788 77401
1705104893.9269788 77404
1705104893.9279242 77398
1705104894.1508188 77398
1705104894.1508188 77395
1705104894.1518295 77402
1705104894.1518295 77416
1705104894.1524856 77433
1705104894.1534884 77430
1705104894.1534884 77444
1705104894.154907 77449
1705104894.154907 77446
1705104894.1559665 77438
1705104894.1569157 77435
1705104894.3800426 77424
1705104894.3800426 77431
1705104894.380814 77416
1705104894.380814 77412
1705104894.3817997 77404
1705104894.3828971 77402
1705104894.3828971 77411
1705104894.3828971 77415
1705104894.3844132 77405
1705104894.3848968 77452
1705104894.3858855 77470
1705104894.6089268 77481
1705104894.6089268 77496
1705104894.6098442 77518
1705104894.6098442 77526
1705104894.6107833 77526
1705104894.6118667 77515
1705104894.6118667 77503
1705104894.61274 77501
1705104894.61274 77501
1705104894.6139762 77491
1705104894.6148908 77482
1705104894.8379896 77478
1705104894.8379896 77482
1705104894.8388085 77478
1705104894.8388085 77467
1705104894.8399498 77459
1705104894.840935 77462
1705104894.840935 77445
1705104894.8418362 77447
1705104894.8418362 77450
1705104894.8429117 77451
1705104894.8439305 77455
1705104895.066818 77468
1705104895.066818 77504
1705104895.0681386 77534
1705104895.0681386 77544
1705104895.0681386 77544
1705104895.0698092 77551
1705104895.0698092 77556
1705104895.0708196 77550
1705104895.0708196 77557
1705104895.0719888 77558
1705104895.072974 77576
1705104895.2952824 77583
1705104895.2952824 77594
1705104895.2963753 77593
1705104895.2973597 77594
1705104895.2973597 77589
1705104895.2983575 77584
1705104895.2983575 77584
1705104895.2993662 77561
1705104895.3003712 77554
1705104895.3003712 77551
1705104895.3013577 77536
1705104895.5250196 77548
1705104895.5250196 77554
1705104895.5259008 77568
1705104895.5259008 77564
1705104895.5268812 77587
1705104895.5278084 77601
1705104895.5278084 77601
1705104895.529048 77590
1705104895.529048 77592
1705104895.529941 77593
1705104895.530981 77602
1705104895.7535331 77611
1705104895.7535331 77622
1705104895.7546163 77625
1705104895.7546163 77637
1705104895.7559931 77645
1705104895.756809 77644
1705104895.756809 77637
1705104895.7579763 77655
1705104895.7579763 77662
1705104895.7588174 77645
1705104895.7599754 77648
1705104895.982745 77628
1705104895.982745 77622
1705104895.9838214 77625
1705104895.9838214 77617
1705104895.9838214 77614
1705104895.9854329 77600
1705104895.9854329 77607
1705104895.9867845 77603
1705104895.9867845 77596
1705104895.987816 77617
1705104895.9888577 77600
1705104896.211269 77594
1705104896.211269 77595
1705104896.212349 77594
1705104896.213378 77595
1705104896.213378 77590
1705104896.2148728 77592
1705104896.2148728 77596
1705104896.215884 77606
1705104896.215884 77617
1705104896.2168772 77624
1705104896.2178733 77625
1705104896.4408605 77637
1705104896.4408605 77655
1705104896.4418867 77667
1705104896.4418867 77670
1705104896.4429631 77674
1705104896.4439733 77683
1705104896.4439733 77691
1705104896.444996 77701
1705104896.444996 77702
1705104896.4459777 77703
1705104896.4469652 77675
1705104896.6691804 77677
1705104896.67019 77663
1705104896.6707947 77667
1705104896.6707947 77659
1705104896.6718805 77661
1705104896.6729705 77666
1705104896.6729705 77648
1705104896.673959 77655
1705104896.673959 77658
1705104896.674974 77645
1705104896.6759684 77642
1705104896.8982406 77649
1705104896.8982406 77644
1705104896.9000056 77634
1705104896.9000056 77632
1705104896.9008164 77644
1705104896.9018683 77652
1705104896.9018683 77666
1705104896.9029486 77668
1705104896.9029486 77688
1705104896.904087 77706
1705104896.904087 77717
1705104897.1271472 77733
1705104897.1271472 77738
1705104897.1288633 77733
1705104897.1288633 77722
1705104897.1288633 77707
1705104897.13031 77706
1705104897.13031 77703
1705104897.1320171 77706
1705104897.1320171 77742
1705104897.1329582 77749
1705104897.133957 77762
1705104897.355973 77774
1705104897.3570628 77769
1705104897.357904 77764
1705104897.357904 77767
1705104897.3589706 77778
1705104897.359996 77798
1705104897.359996 77794
1705104897.3609269 77812
1705104897.3609269 77814
1705104897.3619626 77823
1705104897.362981 77820
1705104897.5854135 77831
1705104897.5859287 77830
1705104897.587004 77834
1705104897.587004 77847
1705104897.5879111 77853
1705104897.5889843 77845
1705104897.5889843 77853
1705104897.5899305 77871
1705104897.5899305 77871
1705104897.5909564 77878
1705104897.591961 77893
1705104897.8134682 77898
1705104897.8148692 77920
1705104897.8158836 77924
1705104897.8158836 77932
1705104897.8172903 77946
1705104897.8177779 77947
1705104897.8177779 77967
1705104897.8187983 77980
1705104897.8187983 77981
1705104897.8197942 77983
1705104897.820885 77978
1705104898.043781 77964
1705104898.043781 77946
1705104898.0448132 77948
1705104898.0448132 77936
1705104898.0458186 77940
1705104898.0468147 77931
1705104898.0468147 77922
1705104898.047812 77912
1705104898.047812 77918
1705104898.048845 77906
1705104898.048845 77912
1705104898.2724771 77909
1705104898.2724771 77907
1705104898.2735078 77913
1705104898.2735078 77918
1705104898.2746253 77929
1705104898.2758543 77916
1705104898.2758543 77927
1705104898.276874 77916
1705104898.276874 77877
1705104898.277806 77838
1705104898.2789025 77800
1705104898.5003521 77764
1705104898.5022702 77748
1705104898.5022702 77745
1705104898.5032625 77743
1705104898.503844 77780
1705104898.5048983 77820
1705104898.5048983 77868
1705104898.5059617 77927
1705104898.5059617 77966
1705104898.5069263 78006
1705104898.507957 78008
1705104898.7303507 77987
1705104898.7303507 77966
1705104898.731361 77956
1705104898.731361 77938
1705104898.7323573 77891
1705104898.733426 77842
1705104898.733426 77822
1705104898.7344317 77824
1705104898.7344317 77852
1705104898.7358494 77857
1705104898.7370584 77884
1705104898.959046 77903
1705104898.959046 77908
1705104898.9613845 77901
1705104898.9613845 77895
1705104898.9613845 77885
1705104898.9628754 77876
1705104898.9628754 77870
1705104898.9638865 77886
1705104898.9638865 77881
1705104898.9648812 77888
1705104898.9658778 77888
1705104899.1888874 77902
1705104899.1888874 77918
1705104899.1898205 77945
1705104899.1898205 77982
1705104899.1907966 78005
1705104899.1918688 78029
1705104899.1918688 78028
1705104899.193189 78033
1705104899.1935809 78029
1705104899.1935809 78032
1705104899.1953654 78032
1705104899.417515 78033
1705104899.417515 78044
1705104899.4185224 77990
1705104899.4185224 77977
1705104899.419517 77974
1705104899.4205136 77977
1705104899.4205136 77973
1705104899.4215105 77969
1705104899.4215105 77967
1705104899.422507 77961
1705104899.4235039 77977
1705104899.6468525 77955
1705104899.6468525 77959
1705104899.6478539 77948
1705104899.6478539 77949
1705104899.6488354 77956
1705104899.649879 77951
1705104899.649879 77962
1705104899.6509478 77963
1705104899.6509478 77950
1705104899.6518822 77949
1705104899.6529121 77934
1705104899.875058 77914
1705104899.8759518 77910
1705104899.8769271 77901
1705104899.8769271 77908
1705104899.8779578 77911
1705104899.8789637 77912
1705104899.8789637 77904
1705104899.879938 77949
1705104899.879938 77939
1705104899.880976 77936
1705104899.8819413 77921
1705104900.1035573 77909
1705104900.1050222 77896
1705104900.105888 77885
1705104900.105888 77881
1705104900.1070473 77865
1705104900.1070473 77867
1705104900.10805 77862
1705104900.1090026 77845
1705104900.1090026 77838
1705104900.109914 77839
1705104900.1112895 77838
1705104900.3332355 77825
1705104900.3341253 77829
1705104900.3341253 77814
1705104900.3351722 77820
1705104900.3351722 77818
1705104900.336747 77810
1705104900.336747 77811
1705104900.337775 77803
1705104900.337775 77783
1705104900.3388488 77773
1705104900.3398852 77806
1705104900.5628185 77800
1705104900.5628185 77798
1705104900.5640194 77801
1705104900.5640194 77807
1705104900.5649145 77797
1705104900.5659473 77809
1705104900.5659473 77798
1705104900.5669181 77801
1705104900.5669181 77820
1705104900.567929 77820
1705104900.5689259 77833
1705104900.7919195 77828
1705104900.7919195 77811
1705104900.7930293 77808
1705104900.7930293 77794
1705104900.7937915 77797
1705104900.7949605 77790
1705104900.7949605 77802
1705104900.7959425 77791
1705104900.7959425 77783
1705104900.796999 77772
1705104900.7979414 77768
1705104901.0209298 77767
1705104901.0209298 77762
1705104901.0218945 77749
1705104901.0218945 77742
1705104901.0229166 77738
1705104901.0239367 77731
1705104901.0239367 77741
1705104901.024956 77741
1705104901.024956 77749
1705104901.0259542 77752
1705104901.0269504 77758
1705104901.2488916 77769
1705104901.249771 77771
1705104901.250209 77769
1705104901.250209 77779
1705104901.2512448 77782
1705104901.2523038 77792
1705104901.2523038 77788
1705104901.2532897 77804
1705104901.2532897 77805
1705104901.254291 77814
1705104901.2557724 77803
1705104901.4773796 77782
1705104901.4783745 77779
1705104901.4793863 77778
1705104901.4793863 77756
1705104901.4803572 77761
1705104901.481558 77763
1705104901.481558 77763
1705104901.482671 77744
1705104901.482671 77730
1705104901.483803 77740
1705104901.4849782 77731
1705104901.7072263 77744
1705104901.7072263 77740
1705104901.7088482 77743
1705104901.7094045 77747
1705104901.7097921 77754
1705104901.7109184 77752
1705104901.7109184 77759
1705104901.7118652 77772
1705104901.7118652 77777
1705104901.713287 77776
1705104901.7138684 77764
1705104901.9357307 77779
1705104901.9367263 77783
1705104901.9375854 77779
1705104901.9375854 77778
1705104901.9386752 77795
1705104901.9397748 77805
1705104901.9397748 77804
1705104901.9408543 77812
1705104901.9408543 77831
1705104901.9422803 77829
1705104901.9428635 77825
1705104902.1651294 77821
1705104902.1651294 77797
1705104902.1667724 77794
1705104902.1667724 77786
1705104902.1667724 77790
1705104902.168142 77779
1705104902.168142 77784
1705104902.1697996 77783
1705104902.1697996 77768
1705104902.1697996 77774
1705104902.1713314 77761
1705104902.394833 77773
1705104902.394833 77787
1705104902.3957756 77778
1705104902.3957756 77788
1705104902.3969433 77782
1705104902.397899 77779
1705104902.397899 77770
1705104902.3989635 77777
1705104902.3989635 77790
1705104902.399922 77800
1705104902.4008691 77814
1705104902.6239135 77818
1705104902.6239135 77810
1705104902.624932 77818
1705104902.624932 77815
1705104902.625928 77813
1705104902.6269214 77822
1705104902.6269214 77835
1705104902.6279175 77840
1705104902.6279175 77874
1705104902.6289146 77877
1705104902.6299112 77896
1705104902.8522081 77900
1705104902.8522081 77884
1705104902.8532865 77875
1705104902.8542874 77857
1705104902.8542874 77857
1705104902.8558156 77856
1705104902.8558156 77850
1705104902.8568873 77851
1705104902.8568873 77832
1705104902.8582578 77826
1705104902.858866 77829
1705104903.08142 77810
1705104903.08142 77800
1705104903.082877 77794
1705104903.082877 77790
1705104903.0841682 77792
1705104903.0841682 77786
1705104903.0841682 77779
1705104903.085766 77766
1705104903.085766 77768
1705104903.0869613 77783
1705104903.0881586 77772
1705104903.310219 77771
1705104903.310219 77782
1705104903.3118212 77799
1705104903.3118212 77809
1705104903.3127744 77800
1705104903.314196 77820
1705104903.314196 77838
1705104903.3147635 77844
1705104903.3147635 77842
1705104903.3157682 77835
1705104903.31688 77826
1705104903.5391314 77833
1705104903.5402112 77837
1705104903.5402112 77850
1705104903.5402112 77843
1705104903.5413284 77861
1705104903.5425656 77862
1705104903.5425656 77877
1705104903.5435777 77863
1705104903.5435777 77865
1705104903.5445743 77855
1705104903.5455706 77863
1705104903.76878 77880
1705104903.76878 77889
1705104903.7697773 77914
1705104903.7697773 77908
1705104903.7708323 77906
1705104903.7718186 77918
1705104903.7718186 77923
1705104903.772761 77926
1705104903.772761 77923
1705104903.7737741 77917
1705104903.7748864 77905
1705104903.9978595 77915
1705104903.9978595 77915
1705104903.9988348 77933
1705104903.9988348 77938
1705104903.99973 77938
1705104904.000833 77957
1705104904.000833 77952
1705104904.0018392 77965
1705104904.0018392 77973
1705104904.002822 77981
1705104904.003668 77983
1705104904.226133 77996
1705104904.2270606 78020
1705104904.2278929 78015
1705104904.2278929 78028
1705104904.2290218 78020
1705104904.229868 78040
1705104904.229868 78051
1705104904.2312686 78040
1705104904.2312686 78080
1705104904.2312686 78086
1705104904.2327693 78072
1705104904.4550931 78064
1705104904.4561503 78049
1705104904.4561503 78031
1705104904.457095 78040
1705104904.4580927 78033
1705104904.458719 78038
1705104904.458719 78034
1705104904.4599028 78038
1705104904.4599028 78034
1705104904.4609284 78036
1705104904.46191 78034
1705104904.6840165 78036
1705104904.6850302 78036
1705104904.6857727 78036
1705104904.6857727 78036
1705104904.6868687 78028
1705104904.6879392 78040
1705104904.6879392 78053
1705104904.6887887 78061
1705104904.6887887 78058
1705104904.6898172 78071
1705104904.6907666 78076
1705104904.9137404 78052
1705104904.9137404 78084
1705104904.9149008 78090
1705104904.9149008 78094
1705104904.9159038 78105
1705104904.9169226 78121
1705104904.9169226 78131
1705104904.9176114 78138
1705104904.9176114 78140
1705104904.9186273 78138
1705104904.9197414 78121
1705104905.1414602 78128
1705104905.1429462 78116
1705104905.1438968 78107
1705104905.1438968 78107
1705104905.144936 78106
1705104905.145874 78112
1705104905.145874 78092
1705104905.1469567 78102
1705104905.1469567 78094
1705104905.147889 78094
1705104905.1489124 78095
1705104905.371142 78095
1705104905.37195 78096
1705104905.3730366 78095
1705104905.3730366 78083
1705104905.3739505 78084
1705104905.3739505 78094
1705104905.3750293 78108
1705104905.3759453 78114
1705104905.3759453 78126
1705104905.3769188 78134
1705104905.3779519 78124
1705104905.60011 78127
1705104905.6011074 78130
1705104905.6011074 78129
1705104905.6020975 78144
1705104905.6020975 78128
1705104905.6031008 78133
1705104905.6040974 78145
1705104905.6040974 78131
1705104905.6050942 78142
1705104905.6060905 78139
1705104905.6060905 78133
1705104905.829203 78124
1705104905.829203 78102
1705104905.83122 78094
1705104905.83122 78101
1705104905.83122 78105
1705104905.8328147 78101
1705104905.8328147 78098
1705104905.8337207 78091
1705104905.8337207 78111
1705104905.834724 78088
1705104905.835815 78085
1705104906.0581837 78097
1705104906.0581837 78082
1705104906.059965 78082
1705104906.059965 78082
1705104906.060887 78078
1705104906.060887 78082
1705104906.0619247 78090
1705104906.0629146 78088
1705104906.0629146 78115
1705104906.0638783 78105
1705104906.0652423 78114
1705104906.286748 78114
1705104906.2879817 78120
1705104906.2888718 78123
1705104906.2888718 78121
1705104906.2899318 78134
1705104906.2899318 78141
1705104906.290946 78143
1705104906.2919405 78155
1705104906.2924473 78157
1705104906.2924473 78151
1705104906.2934968 78169
1705104906.5158622 78173
1705104906.5168684 78171
1705104906.5178792 78139
1705104906.5178792 78129
1705104906.5189407 78139
1705104906.5189407 78127
1705104906.519885 78119
1705104906.520933 78118
1705104906.520933 78095
1705104906.5218747 78090
1705104906.5229237 78089
1705104906.745134 78083
1705104906.745134 78078
1705104906.7461433 78080
1705104906.747132 78080
1705104906.747132 78076
1705104906.748124 78079
1705104906.748124 78072
1705104906.7491205 78073
1705104906.75016 78081
1705104906.75016 78079
1705104906.751167 78076
1705104906.974334 78086
1705104906.974334 78092
1705104906.9762065 78100
1705104906.9762065 78098
1705104906.9762065 78098
1705104906.9762065 78104
1705104906.9777956 78081
1705104906.9788458 78113
1705104906.9788458 78109
1705104906.980258 78127
1705104906.980258 78119
1705104907.203058 78142
1705104907.2038295 78141
1705104907.2052789 78151
1705104907.2052789 78156
1705104907.2052789 78171
1705104907.2052789 78174
1705104907.2071993 78179
1705104907.2071993 78170
1705104907.2071993 78165
1705104907.2083302 78162
1705104907.209286 78147
1705104907.4318042 78147
1705104907.4318042 78152
1705104907.4328005 78142
1705104907.433799 78142
1705104907.433799 78128
1705104907.434794 78126
1705104907.434794 78128
1705104907.4357927 78129
1705104907.4357927 78134
1705104907.4367871 78141
1705104907.4377837 78142
1705104907.6608887 78130
1705104907.6619186 78131
1705104907.6629374 78134
1705104907.6629374 78142
1705104907.6638923 78148
1705104907.6638923 78137
1705104907.6649091 78151
1705104907.6659093 78149
1705104907.6659093 78156
1705104907.6669095 78161
1705104907.6669095 78166
1705104907.8899894 78173
1705104907.8909004 78187
1705104907.89187 78183
1705104907.89187 78193
1705104907.8929222 78198
1705104907.8929222 78201
1705104907.8938742 78206
1705104907.8949265 78217
1705104907.8949265 78222
1705104907.8959243 78228
1705104907.8959243 78214
1705104908.1189723 78193
1705104908.1189723 78183
1705104908.1201508 78177
1705104908.1201508 78202
1705104908.121889 78194
1705104908.121889 78175
1705104908.1228852 78170
1705104908.123929 78170
1705104908.123929 78162
1705104908.1249695 78167
1705104908.1249695 78178
1705104908.3481896 78176
1705104908.3481896 78168
1705104908.349937 78163
1705104908.349937 78156
1705104908.349937 78173
1705104908.3509505 78170
1705104908.351949 78169
1705104908.351949 78166
1705104908.3529432 78175
1705104908.3529432 78177
1705104908.35394 78175
1705104908.5771935 78185
1705104908.5771935 78179
1705104908.5791957 78172
1705104908.5791957 78176
1705104908.5791957 78187
1705104908.5791957 78200
1705104908.580427 78205
1705104908.581873 78205
1705104908.581873 78184
1705104908.5831366 78172
1705104908.5831366 78161
1705104908.8058555 78165
1705104908.8068106 78164
1705104908.8068106 78159
1705104908.807784 78159
1705104908.8088267 78147
1705104908.8088267 78126
1705104908.8098826 78135
1705104908.810901 78114
1705104908.810901 78105
1705104908.811976 78093
1705104908.811976 78096
1705104909.0348423 78094
1705104909.0359294 78085
1705104909.0359294 78094
1705104909.0368278 78087
1705104909.0379136 78098
1705104909.0379136 78105
1705104909.0388663 78100
1705104909.0399156 78118
1705104909.0399156 78115
1705104909.0408635 78117
1705104909.0408635 78119
1705104909.2639544 78124
1705104909.264972 78103
1705104909.264972 78118
1705104909.2658954 78131
1705104909.2669835 78126
1705104909.2669835 78115
1705104909.267992 78099
1705104909.267992 78085
1705104909.2689867 78065
1705104909.2698658 78050
1705104909.2698658 78059
1705104909.4931948 78055
1705104909.4931948 78051
1705104909.4931948 78026
1705104909.495238 78008
1705104909.4957294 77980
1705104909.4957294 77956
1705104909.4972427 77933
1705104909.4972427 77945
1705104909.4972427 77932
1705104909.4993083 77946
1705104909.4993083 77949
1705104909.721874 77953
1705104909.722925 77953
1705104909.722925 77947
1705104909.7238889 77924
1705104909.7249174 77913
1705104909.7249174 77895
1705104909.7258723 77814
1705104909.7268877 77804
1705104909.7268877 77781
1705104909.7279022 77781
1705104909.7279022 77761
1705104909.950464 77763
1705104909.9514759 77766
1705104909.9514759 77745
1705104909.9528115 77735
1705104909.95381 77728
1705104909.95381 77722
1705104909.9551299 77706
1705104909.9551299 77718
1705104909.9551299 77711
1705104909.957328 77706
1705104909.957328 77708
1705104910.1801622 77716
1705104910.1801622 77724
1705104910.1809337 77737
1705104910.181803 77754
1705104910.1828258 77764
1705104910.1828258 77776
1705104910.1838398 77786
1705104910.1838398 77778
1705104910.1847584 77785
1705104910.185765 77793
1705104910.185765 77807
1705104910.4091072 77820
1705104910.4091072 77823
1705104910.4101033 77829
1705104910.4101033 77835
1705104910.4111004 77838
1705104910.412098 77836
1705104910.412098 77834
1705104910.4130943 77834
1705104910.4140902 77831
1705104910.4140902 77837
1705104910.4150877 77828
1705104910.6373348 77813
1705104910.638336 77802
1705104910.638336 77789
1705104910.6393192 77782
1705104910.640322 77775
1705104910.640322 77770
1705104910.641312 77759
1705104910.641312 77753
1705104910.6423092 77748
1705104910.6432633 77736
1705104910.6432633 77736
1705104910.8665967 77730
1705104910.867604 77731
1705104910.867604 77717
1705104910.868774 77699
1705104910.8697662 77717
1705104910.8697662 77714
1705104910.8708162 77722
1705104910.8708162 77734
1705104910.8717725 77733
1705104910.8726907 77748
1705104910.8726907 77758
1705104911.0954113 77770
1705104911.0964093 77771
1705104911.0964093 77778
1705104911.0974042 77775
1705104911.0987363 77770
1705104911.0987363 77778
1705104911.0997138 77778
1705104911.0997138 77760
1705104911.1006768 77752
1705104911.101722 77724
1705104911.101722 77729
1705104911.324783 77708
1705104911.325793 77695
1705104911.325793 77688
1705104911.327225 77681
1705104911.327811 77675
1705104911.327811 77650
1705104911.3293047 77651
1705104911.3293047 77646
1705104911.3298173 77646
1705104911.3313117 77640
1705104911.3313117 77640
1705104911.5537484 77635
1705104911.5542598 77641
1705104911.5542598 77637
1705104911.5557387 77640
1705104911.5568252 77642
1705104911.5568252 77644
1705104911.558211 77644
1705104911.558211 77639
1705104911.5588162 77639
1705104911.559947 77642
1705104911.559947 77659
1705104911.78286 77667
1705104911.7838764 77674
1705104911.7838764 77677
1705104911.7849636 77683
1705104911.7858276 77690
1705104911.7858276 77698
1705104911.7869685 77684
1705104911.7869685 77667
1705104911.7878351 77655
1705104911.7889209 77643
1705104911.7889209 77629
1705104912.0118313 77641
1705104912.0128002 77607
1705104912.0128002 77587
1705104912.0139046 77576
1705104912.0148418 77560
1705104912.0148418 77556
1705104912.015855 77560
1705104912.015855 77551
1705104912.016867 77553
1705104912.0178645 77548
1705104912.0178645 77550
1705104912.2411778 77550
1705104912.2411778 77552
1705104912.2411778 77563
1705104912.2429044 77567
1705104912.2438297 77567
1705104912.2438297 77579
1705104912.245206 77597
1705104912.245206 77588
1705104912.245819 77598
1705104912.2468996 77604
1705104912.2468996 77611
1705104912.4698167 77620
1705104912.470833 77631
1705104912.470833 77634
1705104912.4718223 77643
1705104912.4718223 77662
1705104912.4728215 77647
1705104912.473926 77689
1705104912.473926 77670
1705104912.4748483 77668
1705104912.4758515 77624
1705104912.4758515 77616
1705104912.6996143 77610
1705104912.6996143 77616
1705104912.6996143 77618
1705104912.7008069 77613
1705104912.7008069 77610
1705104912.7017756 77591
1705104912.7027838 77596
1705104912.7027838 77595
1705104912.7037828 77599
1705104912.704909 77594
1705104912.704909 77609
1705104912.927924 77583
1705104912.928731 77597
1705104912.928731 77591
1705104912.9297998 77600
1705104912.9297998 77594
1705104912.9308553 77598
1705104912.931888 77611
1705104912.931888 77603
1705104912.9327688 77616
1705104912.9337835 77601
1705104912.9337835 77631
1705104913.156832 77644
1705104913.157708 77657
1705104913.157708 77660
1705104913.1587715 77670
1705104913.1587715 77688
1705104913.1597033 77700
1705104913.161103 77704
1705104913.161103 77694
1705104913.1616778 77693
1705104913.1631625 77681
1705104913.1631625 77684
1705104913.385836 77682
1705104913.3868265 77676
1705104913.3868265 77671
1705104913.3877258 77678
1705104913.3877258 77667
1705104913.3888156 77662
1705104913.389711 77652
1705104913.389711 77651
1705104913.3908494 77659
1705104913.39188 77665
1705104913.39188 77662
1705104913.615169 77659
1705104913.615169 77667
1705104913.615169 77646
1705104913.6161764 77659
1705104913.6171758 77677
1705104913.6171758 77687
1705104913.6182451 77691
1705104913.6182451 77686
1705104913.6198921 77695
1705104913.6208403 77696
1705104913.6208403 77692
1705104913.843397 77714
1705104913.8443928 77715
1705104913.8443928 77719
1705104913.8453887 77724
1705104913.8453887 77741
1705104913.846385 77748
1705104913.847382 77751
1705104913.847382 77744
1705104913.848954 77736
1705104913.848954 77709
1705104913.848954 77688
1705104914.0731647 77683
1705104914.0731647 77690
1705104914.0731647 77689
1705104914.0747232 77679
1705104914.0747232 77664
1705104914.0757957 77650
1705104914.0769606 77666
1705104914.0769606 77631
1705104914.0778873 77628
1705104914.0787702 77609
1705104914.0787702 77621
1705104914.3015883 77621
1705104914.3028882 77611
1705104914.3028882 77602
1705104914.3038986 77613
1705104914.3038986 77624
1705104914.304831 77609
1705104914.305877 77627
1705104914.305877 77629
1705104914.3070297 77633
1705104914.3070297 77635
1705104914.30785 77634
1705104914.5307045 77639
1705104914.5321584 77638
1705104914.5321584 77657
1705104914.5326111 77651
1705104914.5326111 77676
1705104914.5338035 77668
1705104914.5348165 77683
1705104914.5348165 77695
1705104914.5357907 77700
1705104914.5357907 77717
1705104914.53689 77725
1705104914.75993 77694
1705104914.7607214 77681
1705104914.7607214 77680
1705104914.7618124 77678
1705104914.7618124 77698
1705104914.762732 77692
1705104914.7638009 77673
1705104914.7638009 77659
1705104914.7648485 77650
1705104914.7648485 77626
1705104914.7658796 77634
1705104914.9888935 77620
1705104914.9898107 77628
1705104914.9898107 77613
1705104914.9908655 77608
1705104914.9908655 77608
1705104914.9921184 77602
1705104914.992872 77609
1705104914.992872 77611
1705104914.9939344 77601
1705104914.9939344 77590
1705104914.9949493 77581
1705104915.2179346 77603
1705104915.2179346 77627
1705104915.2190108 77635
1705104915.2199512 77643
1705104915.2199512 77633
1705104915.2209961 77684
1705104915.2209961 77715
1705104915.221945 77723
1705104915.221945 77727
1705104915.2229955 77735
1705104915.2239377 77746
1705104915.4460561 77762
1705104915.4471412 77784
1705104915.4471412 77783
1705104915.4491062 77788
1705104915.4491062 77789
1705104915.4491062 77784
1705104915.4507248 77782
1705104915.4507248 77760
1705104915.4517257 77742
1705104915.4517257 77743
1705104915.4529786 77740
1705104915.6756773 77736
1705104915.6767664 77741
1705104915.6767664 77727
1705104915.6777513 77738
1705104915.6777513 77729
1705104915.6790893 77731
1705104915.6790893 77714
1705104915.680045 77730
1705104915.6810489 77718
1705104915.6810489 77732
1705104915.6810489 77729
1705104915.9030735 77741
1705104915.9030735 77756
1705104915.9030735 77769
1705104915.9030735 77778
1705104915.9030735 77779
1705104915.9030735 77790
1705104915.9030735 77794
1705104915.9030735 77796
1705104915.9030735 77804
1705104915.9101334 77814
1705104915.9107223 77808
1705104916.1336913 77810
1705104916.1336913 77811
1705104916.1348026 77814
1705104916.1356988 77817
1705104916.1356988 77830
1705104916.1366942 77843
1705104916.1376674 77831
1705104916.1376674 77814
1705104916.138761 77799
1705104916.138761 77793
1705104916.1395438 77803
1705104916.3628333 77810
1705104916.3628333 77817
1705104916.3637977 77808
1705104916.3650832 77792
1705104916.3650832 77796
1705104916.3650832 77793
1705104916.366102 77786
1705104916.366102 77805
1705104916.3671684 77794
1705104916.3681884 77796
1705104916.3681884 77797
1705104916.5910816 77813
1705104916.5920784 77810
1705104916.593075 77814
1705104916.593075 77819
1705104916.5940719 77818
1705104916.5940719 77825
1705104916.595141 77820
1705104916.596144 77840
1705104916.596144 77832
1705104916.5971422 77827
1705104916.5981934 77841
1705104916.8208232 77829
1705104916.8208232 77834
1705104916.8218722 77845
1705104916.822885 77863
1705104916.822885 77857
1705104916.8238933 77867
1705104916.824871 77815
1705104916.824871 77810
1705104916.825843 77801
1705104916.825843 77809
1705104916.8270972 77789
1705104917.0498815 77782
1705104917.0498815 77781
1705104917.0506945 77776
1705104917.0517943 77768
1705104917.0517943 77771
1705104917.0527632 77772
1705104917.0527632 77762
1705104917.0537803 77754
1705104917.0548556 77742
1705104917.0548556 77738
1705104917.0558634 77728
1705104917.2788599 77718
1705104917.2794425 77738
1705104917.2797272 77741
1705104917.2807689 77743
1705104917.2807689 77749
1705104917.2817721 77751
1705104917.2817721 77765
1705104917.282817 77766
1705104917.283862 77768
1705104917.283862 77788
1705104917.2847717 77765
1705104917.5076993 77804
1705104917.5076993 77811
1705104917.5087886 77822
1705104917.5099118 77823
1705104917.5099118 77835
1705104917.510807 77818
1705104917.510807 77797
1705104917.5118494 77788
1705104917.5128722 77787
1705104917.5128722 77792
1705104917.5138621 77781
1705104917.7368283 77767
1705104917.7368283 77763
1705104917.7381845 77747
1705104917.7386973 77740
1705104917.7386973 77721
1705104917.7397385 77715
1705104917.7397385 77710
1705104917.7408314 77698
1705104917.7418325 77695
1705104917.7418325 77696
1705104917.7431998 77691
1705104917.9652057 77697
1705104917.9662104 77683
1705104917.9662104 77683
1705104917.967205 77700
1705104917.967205 77714
1705104917.9682074 77711
1705104917.9682074 77705
1705104917.9692047 77713
1705104917.9701996 77721
1705104917.9701996 77728
1705104917.9717665 77740
1705104918.194842 77735
1705104918.194842 77742
1705104918.1960745 77756
1705104918.1960745 77758
1705104918.1960745 77776
1705104918.1977189 77789
1705104918.1977189 77800
1705104918.1987865 77785
1705104918.1997929 77781
1705104918.1997929 77762
1705104918.2008784 77744
1705104918.4231424 77744
1705104918.4231424 77746
1705104918.4249213 77745
1705104918.4258125 77750
1705104918.4258125 77720
1705104918.426867 77711
1705104918.426867 77700
1705104918.427917 77726
1705104918.4287186 77703
1705104918.4287186 77706
1705104918.429818 77710
1705104918.6527205 77708
1705104918.6527205 77714
1705104918.654269 77721
1705104918.654269 77745
1705104918.654269 77743
1705104918.6553502 77750
1705104918.6562753 77765
1705104918.6567965 77764
1705104918.6581728 77779
1705104918.6581728 77784
1705104918.6587703 77774
1705104918.8817315 77785
1705104918.8817315 77797
1705104918.8827488 77793
1705104918.8837306 77795
1705104918.8837306 77796
1705104918.8847876 77812
1705104918.8847876 77810
1705104918.8858721 77827
1705104918.8868685 77836
1705104918.8868685 77834
1705104918.8878424 77818
1705104919.110959 77809
1705104919.110959 77774
1705104919.111954 77774
1705104919.111954 77782
1705104919.112957 77766
1705104919.1137156 77760
1705104919.1137156 77753
1705104919.1147923 77745
1705104919.1158066 77740
1705104919.1158066 77736
1705104919.1168504 77733
1705104919.339709 77727
1705104919.339709 77722
1705104919.3412533 77715
1705104919.3412533 77713
1705104919.3412533 77723
1705104919.3432674 77723
1705104919.3432674 77733
1705104919.3432674 77750
1705104919.3443382 77754
1705104919.3452747 77760
1705104919.3452747 77748
1705104919.56921 77749
1705104919.56921 77751
1705104919.56921 77761
1705104919.5711432 77763
1705104919.5711432 77769
1705104919.5711432 77763
1705104919.5711432 77794
1705104919.5726967 77801
1705104919.573772 77780
1705104919.573772 77762
1705104919.575169 77755
1705104919.797537 77737
1705104919.797537 77736
1705104919.7986007 77733
1705104919.7986007 77745
1705104919.7997167 77729
1705104919.80076 77719
1705104919.80076 77711
1705104919.801747 77712
1705104919.803192 77705
1705104919.803192 77705
1705104919.803192 77696
1705104920.0267992 77690
1705104920.0267992 77683
1705104920.0276647 77682
1705104920.0276647 77682
1705104920.02875 77684
1705104920.0297434 77689
1705104920.0297434 77691
1705104920.03088 77694
1705104920.031893 77687
1705104920.031893 77702
1705104920.031893 77679
1705104920.2558646 77689
1705104920.2558646 77691
1705104920.2563803 77701
1705104920.2563803 77697
1705104920.2576873 77703
1705104920.2587788 77717
1705104920.2587788 77710
1705104920.259866 77721
1705104920.260863 77714
1705104920.260863 77700
1705104920.2618601 77686
1705104920.4848056 77678
1705104920.4848056 77663
1705104920.4858003 77656
1705104920.4858003 77651
1705104920.4869084 77656
1705104920.4878078 77631
1705104920.4878078 77614
1705104920.489206 77605
1705104920.489206 77599
1705104920.489206 77601
1705104920.4912634 77588
1705104920.7137384 77592
1705104920.7137384 77582
1705104920.7147348 77581
1705104920.7147348 77568
1705104920.7157364 77561
1705104920.7167275 77568
1705104920.7167275 77563
1705104920.7177243 77576
1705104920.7187204 77577
1705104920.7187204 77576
1705104920.719717 77579
1705104920.942801 77577
1705104920.942801 77589
1705104920.9436724 77592
1705104920.9436724 77590
1705104920.9447644 77604
1705104920.9461691 77606
1705104920.9461691 77610
1705104920.9461691 77615
1705104920.9471872 77614
1705104920.9481773 77632
1705104920.9481773 77642
1705104921.1711307 77641
1705104921.1711307 77621
1705104921.1721253 77620
1705104921.1721253 77598
1705104921.1731176 77596
1705104921.1741397 77594
1705104921.1741397 77594
1705104921.1751878 77558
1705104921.1761737 77542
1705104921.1761737 77538
1705104921.1771722 77526
1705104921.4007852 77514
1705104921.4007852 77507
1705104921.4017525 77498
1705104921.4017525 77503
1705104921.402805 77497
1705104921.4038243 77501
1705104921.4038243 77489
1705104921.404853 77491
1705104921.4058373 77494
1705104921.4058373 77506
1705104921.4068205 77510
1705104921.6296663 77513
1705104921.6296663 77520
1705104921.6308155 77524
1705104921.6308155 77528
1705104921.6318254 77536
1705104921.6327674 77536
1705104921.6327674 77556
1705104921.6338246 77564
1705104921.6348448 77580
1705104921.6348448 77586
1705104921.635856 77598
1705104921.8587368 77595
1705104921.8587368 77619
1705104921.8598351 77627
1705104921.860852 77639
1705104921.860852 77633
1705104921.8618639 77625
1705104921.8618639 77612
1705104921.8629394 77605
1705104921.8637853 77595
1705104921.8637853 77618
1705104921.8647375 77628
1705104922.08797 77626
1705104922.0880573 77642
1705104922.0880573 77639
1705104922.0891683 77648
1705104922.090173 77643
1705104922.0902815 77654
1705104922.0902815 77653
1705104922.0913692 77652
1705104922.0924108 77663
1705104922.0924108 77646
1705104922.0934381 77649
1705104922.316867 77657
1705104922.316867 77654
1705104922.3178391 77648
1705104922.3178391 77647
1705104922.3187456 77600
1705104922.3197424 77619
1705104922.3197424 77626
1705104922.3208537 77628
1705104922.3217866 77620
1705104922.3217866 77615
1705104922.323171 77605
1705104922.5328956 77612
1705104922.5328956 77612
1705104922.5328956 77600
1705104922.5328956 77597
1705104922.5328956 77590
1705104922.5485184 77596
1705104922.549176 77591
1705104922.5494673 77580
1705104922.5507169 77552
1705104922.5507169 77533
1705104922.5517666 77521
1705104922.774819 77516
1705104922.774819 77525
1705104922.7761493 77530
1705104922.7761493 77525
1705104922.7767951 77529
1705104922.7774599 77520
1705104922.7774599 77507
1705104922.7791674 77523
1705104922.7791674 77520
1705104922.7791674 77505
1705104922.7801814 77504
1705104923.0037622 77516
1705104923.0037622 77527
1705104923.0046701 77533
1705104923.0046701 77541
1705104923.005835 77551
1705104923.0067186 77562
1705104923.0067186 77568
1705104923.007798 77582
1705104923.008715 77578
1705104923.008715 77593
1705104923.0097196 77595
1705104923.2323635 77612
1705104923.2323635 77612
1705104923.2334418 77612
1705104923.2334418 77609
1705104923.2347305 77621
1705104923.2357285 77639
1705104923.2357285 77637
1705104923.2368069 77655
1705104923.2368069 77626
1705104923.2378201 77618
1705104923.2388363 77612
1705104923.461651 77607
1705104923.461651 77613
1705104923.462662 77594
1705104923.462662 77587
1705104923.4636555 77570
1705104923.4646764 77567
1705104923.4646764 77562
1705104923.4656792 77554
1705104923.4656792 77549
1705104923.4667835 77545
1705104923.4678044 77539
1705104923.6901152 77539
1705104923.6910498 77553
1705104923.691709 77556
1705104923.691709 77551
1705104923.6926534 77553
1705104923.6941206 77560
1705104923.6941206 77574
1705104923.694648 77591
1705104923.694648 77599
1705104923.695657 77611
1705104923.6967437 77612
1705104923.91925 77625
1705104923.91925 77610
1705104923.9207327 77634
1705104923.9207327 77650
1705104923.9217534 77652
1705104923.9231615 77670
1705104923.9231615 77677
1705104923.9231615 77671
1705104923.9231615 77663
1705104923.925235 77654
1705104923.925235 77637
1705104924.1484063 77624
1705104924.1484063 77616
1705104924.149413 77610
1705104924.149413 77614
1705104924.1504414 77597
1705104924.1515265 77576
1705104924.1515265 77563
1705104924.1526482 77549
1705104924.1526482 77544
1705104924.1538186 77538
1705104924.154842 77533
1705104924.3772597 77524
1705104924.3772597 77519
1705104924.3788471 77522
1705104924.3788471 77511
1705104924.379774 77512
1705104924.3810475 77512
1705104924.3810475 77518
1705104924.3810475 77530
1705104924.3810475 77548
1705104924.3829684 77568
1705104924.3829684 77568
1705104924.6059482 77611
1705104924.6071556 77611
1705104924.6076427 77614
1705104924.6076427 77630
1705104924.6086633 77628
1705104924.6096308 77632
1705104924.6096308 77642
1705104924.610692 77639
1705104924.610692 77647
1705104924.612152 77660
1705104924.6126482 77648
1705104924.8347173 77656
1705104924.8358355 77668
1705104924.8370364 77654
1705104924.8370364 77643
1705104924.8370364 77611
1705104924.8381274 77582
1705104924.8381274 77560
1705104924.8397424 77552
1705104924.8397424 77515
1705104924.84073 77485
1705104924.8421488 77460
1705104925.064107 77417
1705104925.064107 77397
1705104925.0651176 77363
1705104925.0661983 77340
1705104925.0667422 77338
1705104925.0678427 77331
1705104925.0678427 77330
1705104925.0687912 77328
1705104925.0687912 77330
1705104925.0700352 77324
1705104925.0707958 77326
1705104925.2927651 77307
1705104925.2936382 77298
1705104925.2946382 77271
1705104925.2946382 77208
1705104925.2955036 77171
1705104925.2967162 77203
1705104925.2967162 77322
1705104925.2975552 77405
1705104925.2975552 77466
1705104925.298565 77530
1705104925.2996318 77538
1705104925.5217462 77494
1705104925.5227914 77260
1705104925.5237875 77044
1705104925.5237875 76825
1705104925.5248294 76585
1705104925.5257454 76270
1705104925.5257454 75994
1705104925.5268235 75570
1705104925.5268235 74589
1705104925.5277593 73984
1705104925.5288146 73545
1705104925.7508225 73444
1705104925.752157 73607
1705104925.752647 73583
1705104925.752647 73290
1705104925.7536175 72599
1705104925.7547255 71421
1705104925.7547255 70095
1705104925.7556255 69582
1705104925.7556255 68753
1705104925.7568133 68428
1705104925.7578063 68350
1705104925.980088 68147
1705104925.9807355 67478
1705104925.9817388 66767
1705104925.9817388 65352
1705104925.9827356 64245
1705104925.9837358 63284
1705104925.9837358 63002
1705104925.9851477 63468
1705104925.9851477 64675
1705104925.9851477 65726
1705104925.9867475 65817
1705104926.20843 65109
1705104926.2096283 68825
1705104926.2107553 69084
1705104926.2107553 69299
1705104926.2118106 51212
1705104926.212325 32768
1705104926.212325 15053
1705104926.2133782 8247
1705104926.2133782 5672
1705104926.2143621 4907
1705104926.2143621 4547
1705104926.4380805 4066
1705104926.4387612 3734
1705104926.4387612 3579
1705104926.439698 3480
1705104926.439698 3669
1705104926.4404445 3686
1705104926.4418163 3624
1705104926.4418163 3366
1705104926.4426806 2927
1705104926.4426806 2489
1705104926.4437208 1981
1705104926.6670997 1528
1705104926.6670997 1162
1705104926.6670997 922
1705104926.6692255 772
1705104926.6692255 656
1705104926.6692255 640
1705104926.6692255 2095
1705104926.6702425 3212
1705104926.6702425 3984
1705104926.6712353 5206
1705104926.6712353 6500
1705104926.895496 7419
1705104926.8966389 5761
1705104926.8966389 3721
1705104926.8978076 2565
1705104926.8978076 2191
1705104926.8988132 1820
1705104926.8988132 1603
1705104926.8999715 1215
1705104926.8999715 1083
1705104926.9009764 958
1705104926.9009764 844
1705104927.1247838 754
1705104927.126123 729
1705104927.126123 782
1705104927.1267638 881
1705104927.1267638 1206
1705104927.1278777 1243
1705104927.1278777 1218
1705104927.1290915 1210
1705104927.1290915 1161
1705104927.1297722 1022
1705104927.1297722 875
1705104927.3534622 1693
1705104927.354462 3462
1705104927.354462 3340
1705104927.3554566 713
1705104927.3554566 694
1705104927.3565257 686
1705104927.3565257 664
1705104927.3575225 607
1705104927.3575225 575
1705104927.3575225 555
1705104927.3585174 567
1705104927.5827487 590
1705104927.583787 608
1705104927.583787 600
1705104927.5847955 597
1705104927.5847955 630
1705104927.5847955 654
1705104927.586037 711
1705104927.586037 838
1705104927.586846 1006
1705104927.586846 1433
1705104927.587757 1474
1705104927.811439 1471
1705104927.8124413 1431
1705104927.8124413 1444
1705104927.8134289 1463
1705104927.8134289 1462
1705104927.81467 1466
1705104927.81467 1469
1705104927.8156412 1453
1705104927.8166938 1453
1705104927.8166938 1448
1705104927.8178551 1455
